i,vx,vy
0.031,-0.3415,-0.698
0.029,-0.338,-0.6985
0.03,-0.337,-0.696
0.0275,-0.336,-0.694
0.0295,-0.3355,-0.6925
0.033,-0.336,-0.6975
0.0345,-0.3345,-0.6975
0.0355,-0.335,-0.688
0.034,-0.3355,-0.6875
0.0315,-0.3345,-0.687
0.033,-0.3315,-0.685
0.0345,-0.3275,-0.685
0.033,-0.329,-0.683
0.0355,-0.33,-0.6905
0.0365,-0.329,-0.6905
0.036,-0.3285,-0.686
0.0385,-0.3265,-0.687
0.039,-0.324,-0.683
0.043,-0.323,-0.683
0.044,-0.324,-0.684
0.042,-0.324,-0.6835
0.0415,-0.3225,-0.688
0.04,-0.321,-0.688
0.038,-0.319,-0.6855
0.0355,-0.3185,-0.681
0.0415,-0.315,-0.676
0.0415,-0.315,-0.6745
0.041,-0.3155,-0.674
0.039,-0.313,-0.6765
0.0365,-0.3125,-0.6765
0.0365,-0.3095,-0.6755
0.036,-0.3095,-0.6765
0.0375,-0.3105,-0.6755
0.035,-0.3095,-0.675
0.0385,-0.307,-0.674
0.038,-0.306,-0.6715
0.035,-0.305,-0.6695
0.0355,-0.3035,-0.6695
0.0345,-0.3035,-0.667
0.0355,-0.303,-0.6595
0.0345,-0.302,-0.6595
0.038,-0.301,-0.6665
0.0405,-0.298,-0.669
0.039,-0.295,-0.665
0.0395,-0.2935,-0.654
0.038,-0.29,-0.6535
0.0395,-0.288,-0.661
0.0415,-0.2865,-0.6625
0.043,-0.283,-0.6565
0.0455,-0.2775,-0.6465
0.045,-0.2775,-0.6445
0.0395,-0.281,-0.65
0.0405,-0.279,-0.647
0.048,-0.2745,-0.6455
0.0485,-0.272,-0.6455
0.0485,-0.2705,-0.6445
0.0465,-0.268,-0.646
0.045,-0.264,-0.642
0.045,-0.262,-0.638
0.0465,-0.261,-0.639
0.0485,-0.2575,-0.6365
0.0495,-0.255,-0.6355
0.0515,-0.2515,-0.6395
0.0525,-0.248,-0.639
0.0575,-0.244,-0.635
0.0565,-0.2415,-0.6325
0.056,-0.2395,-0.634
0.0585,-0.2385,-0.6325
0.06,-0.2365,-0.6295
0.0635,-0.231,-0.625
0.061,-0.2285,-0.622
0.0585,-0.227,-0.621
0.059,-0.2235,-0.6205
0.066,-0.22,-0.6195
0.07,-0.2165,-0.617
0.068,-0.214,-0.614
0.0695,-0.211,-0.609
0.0675,-0.207,-0.6085
0.068,-0.2035,-0.6045
0.0715,-0.1995,-0.603
0.073,-0.195,-0.606
0.077,-0.1905,-0.603
0.079,-0.187,-0.5995
0.0755,-0.183,-0.5945
0.071,-0.1785,-0.5905
0.071,-0.173,-0.589
0.0745,-0.1705,-0.584
0.0785,-0.1675,-0.5755
0.0835,-0.1625,-0.574
0.083,-0.159,-0.5715
0.08,-0.1545,-0.568
0.0795,-0.151,-0.5675
0.084,-0.1455,-0.5595
0.0895,-0.141,-0.5595
0.09,-0.1355,-0.559
0.092,-0.129,-0.5525
0.094,-0.125,-0.548
0.0925,-0.121,-0.5475
0.0925,-0.116,-0.546
0.096,-0.1115,-0.5415
0.099,-0.108,-0.5405
0.096,-0.102,-0.5365
0.095,-0.0985,-0.531
0.099,-0.092,-0.527
0.1005,-0.085,-0.5235
0.1025,-0.0815,-0.5205
0.1005,-0.077,-0.5185
0.1015,-0.0705,-0.5135
0.1055,-0.065,-0.51
0.1035,-0.0605,-0.5045
0.103,-0.0575,-0.497
0.1025,-0.054,-0.4955
0.106,-0.0465,-0.492
0.1125,-0.0415,-0.491
0.112,-0.0365,-0.49
0.109,-0.033,-0.4855
0.1115,-0.0305,-0.4815
0.1135,-0.0265,-0.4785
0.1145,-0.0215,-0.48
0.1155,-0.018,-0.476
0.1175,-0.015,-0.4725
0.1165,-0.01,-0.47
0.112,-0.007,-0.465
0.109,-0.0045,-0.463
0.109,-0.001,-0.4575
0.1115,0.002,-0.455
0.1105,0.0045,-0.4505
0.1095,0.0085,-0.447
0.11,0.0105,-0.4455
0.107,0.009,-0.445
0.1105,0.0115,-0.442
0.1135,0.015,-0.4385
0.1135,0.016,-0.4385
0.117,0.0195,-0.436
0.1165,0.0235,-0.4375
0.115,0.0255,-0.437
0.119,0.027,-0.43
0.122,0.03,-0.424
0.117,0.0315,-0.422
0.116,0.032,-0.4205
0.118,0.0335,-0.4195
0.12,0.0335,-0.4185
0.121,0.0325,-0.4145
0.118,0.031,-0.4115
0.117,0.032,-0.412
0.1175,0.032,-0.418
0.1165,0.03,-0.4225
0.114,0.0275,-0.42
0.1125,0.025,-0.4205
0.1125,0.0215,-0.423
0.1125,0.018,-0.4245
0.108,0.016,-0.4235
0.106,0.014,-0.4285
0.1055,0.0095,-0.4365
0.1025,0.003,-0.438
0.1025,-0.0015,-0.4445
0.1015,-0.0045,-0.4465
0.1,-0.009,-0.4485
0.098,-0.0145,-0.4505
0.097,-0.021,-0.454
0.0995,-0.0275,-0.461
0.0955,-0.035,-0.463
0.087,-0.043,-0.474
0.08,-0.05,-0.4835
0.0795,-0.054,-0.4885
0.08,-0.0595,-0.492
0.077,-0.0695,-0.491
0.071,-0.078,-0.494
0.0655,-0.086,-0.4985
0.067,-0.092,-0.5055
0.0635,-0.1,-0.513
0.059,-0.109,-0.5185
0.0625,-0.114,-0.525
0.062,-0.123,-0.5325
0.059,-0.1305,-0.5335
0.059,-0.1355,-0.5305
0.0625,-0.143,-0.5335
0.06,-0.1515,-0.5425
0.0515,-0.1595,-0.551
0.046,-0.1685,-0.5575
0.039,-0.1755,-0.566
0.038,-0.179,-0.5725
0.037,-0.186,-0.5735
0.0335,-0.192,-0.5755
0.032,-0.1975,-0.577
0.0295,-0.2035,-0.579
0.027,-0.2095,-0.5845
0.0245,-0.2165,-0.588
0.0235,-0.2215,-0.5895
0.024,-0.224,-0.5935
0.0225,-0.2285,-0.596
0.022,-0.235,-0.5965
0.0205,-0.2385,-0.6005
0.022,-0.243,-0.6045
0.025,-0.2475,-0.6075
0.023,-0.2485,-0.611
0.021,-0.252,-0.613
0.022,-0.257,-0.617
0.019,-0.26,-0.62
0.015,-0.264,-0.622
0.0135,-0.268,-0.6235
0.0135,-0.271,-0.629
0.0145,-0.2735,-0.632
0.0085,-0.2755,-0.6295
0.005,-0.279,-0.6305
0.0065,-0.2815,-0.631
0.0045,-0.284,-0.631
0.0045,-0.285,-0.628
0.0065,-0.2845,-0.629
0.003,-0.2865,-0.633
-0.003,-0.2885,-0.634
-0.0065,-0.2915,-0.6335
-0.006,-0.294,-0.633
-0.004,-0.294,-0.6325
-0.0085,-0.296,-0.6365
-0.0075,-0.295,-0.6375
-0.002,-0.2915,-0.634
-0.006,-0.2975,-0.6395
-0.0055,-0.3035,-0.642
-0.0035,-0.3025,-0.642
-0.006,-0.3025,-0.642
-0.0035,-0.302,-0.645
-0.0035,-0.3035,-0.6465
-0.0085,-0.3055,-0.645
-0.0115,-0.306,-0.6445
-0.0085,-0.3065,-0.6435
-0.0055,-0.3065,-0.645
-0.009,-0.3105,-0.6455
-0.012,-0.3095,-0.647
-0.0105,-0.308,-0.648
-0.0095,-0.308,-0.645
-0.0085,-0.304,-0.641
-0.0105,-0.3075,-0.645
-0.013,-0.3095,-0.65
-0.0115,-0.3095,-0.6525
-0.0095,-0.311,-0.653
-0.0075,-0.3095,-0.6525
-0.0105,-0.312,-0.6515
-0.0135,-0.3115,-0.6465
-0.01,-0.31,-0.646
-0.0065,-0.311,-0.647
-0.006,-0.3125,-0.6485
-0.0085,-0.3125,-0.648
-0.014,-0.3125,-0.6475
-0.013,-0.313,-0.653
-0.014,-0.3125,-0.6535
-0.0165,-0.312,-0.6515
-0.017,-0.3115,-0.6495
-0.0195,-0.312,-0.65
-0.022,-0.3115,-0.653
-0.023,-0.3125,-0.648
-0.0285,-0.313,-0.6475
-0.0295,-0.313,-0.649
-0.025,-0.312,-0.647
-0.0215,-0.3115,-0.649
-0.021,-0.314,-0.6535
-0.026,-0.314,-0.6545
-0.028,-0.315,-0.6545
-0.0265,-0.3155,-0.6535
-0.023,-0.314,-0.648
-0.023,-0.316,-0.645
-0.028,-0.317,-0.6505
-0.032,-0.3175,-0.653
-0.0375,-0.317,-0.651
-0.0385,-0.319,-0.65
-0.035,-0.319,-0.6515
-0.0325,-0.316,-0.654
-0.0315,-0.3175,-0.6555
-0.0335,-0.3185,-0.6515
-0.0335,-0.319,-0.648
-0.0355,-0.319,-0.6505
-0.0355,-0.3185,-0.6525
-0.034,-0.3195,-0.6515
-0.037,-0.321,-0.6485
-0.037,-0.3205,-0.6485
-0.0355,-0.3205,-0.6485
-0.031,-0.3205,-0.646
-0.0315,-0.3195,-0.6465
-0.033,-0.322,-0.6455
-0.0315,-0.323,-0.648
-0.0315,-0.3235,-0.6515
-0.028,-0.322,-0.65
-0.0255,-0.3225,-0.65
-0.0275,-0.3245,-0.6475
-0.0305,-0.3245,-0.6445
-0.0275,-0.325,-0.642
-0.03,-0.3255,-0.6455
-0.034,-0.3255,-0.647
-0.033,-0.326,-0.6475
-0.0335,-0.3265,-0.65
-0.033,-0.3255,-0.643
-0.03,-0.326,-0.641
-0.026,-0.3255,-0.643
-0.0255,-0.326,-0.6455
-0.0255,-0.3265,-0.6495
-0.0275,-0.3255,-0.648
-0.0285,-0.326,-0.65
-0.024,-0.326,-0.648
-0.021,-0.325,-0.6455
-0.0185,-0.3235,-0.6485
-0.017,-0.3235,-0.6485
-0.0195,-0.327,-0.652
-0.021,-0.329,-0.652
-0.0255,-0.328,-0.65
-0.027,-0.3275,-0.6495
-0.026,-0.327,-0.648
-0.0265,-0.3265,-0.6505
-0.023,-0.325,-0.6525
-0.0225,-0.324,-0.6525
-0.023,-0.3245,-0.652
-0.022,-0.3245,-0.649
-0.0195,-0.324,-0.649
-0.017,-0.3255,-0.65
-0.0165,-0.325,-0.653
-0.0165,-0.3245,-0.657
-0.0165,-0.3255,-0.6555
-0.017,-0.324,-0.651
-0.02,-0.326,-0.65
-0.0225,-0.3245,-0.6545
-0.0255,-0.325,-0.659
-0.025,-0.325,-0.66
-0.0215,-0.3245,-0.6615
-0.0195,-0.3255,-0.6605
-0.0185,-0.324,-0.6595
-0.0185,-0.325,-0.656
-0.02,-0.325,-0.6505
-0.02,-0.3265,-0.6555
-0.0175,-0.3285,-0.6545
-0.0185,-0.3285,-0.6505
-0.0205,-0.327,-0.653
-0.0205,-0.327,-0.654
-0.022,-0.327,-0.651
-0.0215,-0.3275,-0.648
-0.0165,-0.328,-0.653
-0.015,-0.3255,-0.6545
-0.016,-0.3265,-0.6555
-0.016,-0.3265,-0.6625
-0.018,-0.325,-0.665
-0.0205,-0.326,-0.6635
-0.019,-0.3255,-0.6615
-0.0185,-0.325,-0.66
-0.0185,-0.324,-0.662
-0.0165,-0.3235,-0.664
-0.0195,-0.3245,-0.661
-0.02,-0.3235,-0.6625
-0.016,-0.322,-0.6685
-0.014,-0.323,-0.67
-0.0185,-0.3225,-0.6635
-0.0195,-0.3215,-0.6635
-0.0195,-0.3215,-0.6635
-0.0195,-0.322,-0.6575
-0.0165,-0.3215,-0.657
-0.017,-0.32,-0.6565
-0.016,-0.321,-0.6585
-0.017,-0.3215,-0.6605
-0.022,-0.3215,-0.6655
-0.0225,-0.3215,-0.6675
-0.022,-0.321,-0.6655
-0.0215,-0.322,-0.665
-0.02,-0.3235,-0.6645
-0.0195,-0.323,-0.6645
-0.017,-0.321,-0.6595
-0.0165,-0.321,-0.6605
-0.02,-0.324,-0.6585
-0.0235,-0.324,-0.654
-0.0295,-0.3235,-0.659
-0.0295,-0.325,-0.661
-0.0225,-0.3255,-0.6585
-0.0175,-0.325,-0.6565
-0.016,-0.325,-0.6585
-0.0195,-0.3255,-0.661
-0.022,-0.3255,-0.665
-0.021,-0.3265,-0.665
-0.017,-0.327,-0.66
-0.0125,-0.3265,-0.6595
-0.0125,-0.3265,-0.6625
-0.016,-0.3265,-0.664
-0.0195,-0.3265,-0.664
-0.0205,-0.326,-0.664
-0.0195,-0.327,-0.663
-0.0215,-0.3285,-0.6635
-0.018,-0.3265,-0.662
-0.0155,-0.327,-0.661
-0.0195,-0.331,-0.6605
-0.0155,-0.3315,-0.6575
-0.0145,-0.3315,-0.657
-0.013,-0.33,-0.657
-0.0115,-0.3295,-0.6545
-0.0185,-0.332,-0.6585
-0.0225,-0.3335,-0.664
-0.0255,-0.334,-0.6635
-0.0295,-0.3335,-0.6635
-0.024,-0.333,-0.6625
-0.0245,-0.335,-0.6625
-0.0275,-0.336,-0.6635
-0.022,-0.335,-0.6645
-0.017,-0.331,-0.6615
-0.0135,-0.3285,-0.6585
-0.024,-0.3375,-0.6635
-0.033,-0.3415,-0.671
-0.0345,-0.341,-0.6785
-0.037,-0.343,-0.682
-0.033,-0.34,-0.674
-0.034,-0.3405,-0.664
-0.0375,-0.341,-0.661
-0.038,-0.3395,-0.664
-0.0375,-0.34,-0.666
-0.035,-0.341,-0.665
-0.035,-0.341,-0.663
-0.0355,-0.3395,-0.6645
-0.0345,-0.341,-0.668
-0.0325,-0.341,-0.6665
-0.0345,-0.341,-0.667
-0.0345,-0.344,-0.672
-0.033,-0.343,-0.6735
-0.0345,-0.342,-0.6715
-0.0345,-0.3415,-0.6715
-0.034,-0.342,-0.6725
-0.034,-0.343,-0.6705
-0.0325,-0.344,-0.6735
-0.033,-0.3465,-0.675
-0.0335,-0.346,-0.6755
-0.0345,-0.346,-0.678
-0.0375,-0.346,-0.6745
-0.037,-0.3475,-0.67
-0.039,-0.3485,-0.6725
-0.0355,-0.345,-0.6735
-0.035,-0.347,-0.671
-0.0385,-0.3485,-0.6705
-0.0375,-0.3475,-0.669
-0.0415,-0.348,-0.668
-0.042,-0.348,-0.668
-0.041,-0.347,-0.67
-0.0425,-0.3475,-0.675
-0.0405,-0.3495,-0.671
-0.0385,-0.349,-0.666
-0.0395,-0.3485,-0.6675
-0.039,-0.3485,-0.67
-0.037,-0.349,-0.6695
-0.0345,-0.35,-0.67
-0.033,-0.351,-0.676
-0.0335,-0.353,-0.6785
-0.0365,-0.353,-0.677
-0.037,-0.352,-0.677
-0.037,-0.3525,-0.675
-0.0345,-0.354,-0.674
-0.0335,-0.3555,-0.6725
-0.039,-0.355,-0.67
-0.039,-0.3535,-0.674
-0.0355,-0.354,-0.676
-0.0355,-0.356,-0.675
-0.037,-0.3565,-0.6735
-0.0405,-0.3555,-0.675
-0.0405,-0.3555,-0.6805
-0.037,-0.3555,-0.681
-0.0375,-0.356,-0.6805
-0.0375,-0.355,-0.679
-0.038,-0.3555,-0.679
-0.04,-0.3555,-0.68
-0.039,-0.3545,-0.6785
-0.0405,-0.356,-0.6805
-0.042,-0.3575,-0.682
-0.0415,-0.357,-0.6795
-0.044,-0.3555,-0.677
-0.0475,-0.357,-0.674
-0.0455,-0.3585,-0.675
-0.044,-0.358,-0.673
-0.0435,-0.3575,-0.6715
-0.0455,-0.358,-0.6755
-0.048,-0.357,-0.674
-0.0475,-0.3585,-0.676
-0.048,-0.3585,-0.6755
-0.045,-0.3575,-0.6765
-0.0405,-0.3595,-0.68
-0.0405,-0.358,-0.6805
-0.0405,-0.3585,-0.6815
-0.04,-0.3585,-0.679
-0.0405,-0.3575,-0.68
-0.04,-0.3555,-0.68
-0.041,-0.3585,-0.684
-0.042,-0.3625,-0.6865
-0.0425,-0.36,-0.6845
-0.0455,-0.361,-0.6845
-0.048,-0.3615,-0.679
-0.0445,-0.36,-0.677
-0.042,-0.361,-0.6755
-0.044,-0.362,-0.671
-0.0425,-0.362,-0.672
-0.0415,-0.3605,-0.674
-0.042,-0.36,-0.6745
-0.041,-0.36,-0.672
-0.0425,-0.3605,-0.6725
-0.045,-0.3615,-0.6755
-0.0485,-0.3615,-0.678
-0.0505,-0.3625,-0.679
-0.0505,-0.363,-0.6765
-0.047,-0.363,-0.6755
-0.0465,-0.3625,-0.675
-0.048,-0.363,-0.6755
-0.0445,-0.3635,-0.679
-0.042,-0.363,-0.68
-0.04,-0.3625,-0.6805
-0.0405,-0.3615,-0.6785
-0.043,-0.3615,-0.6735
-0.044,-0.3615,-0.673
-0.043,-0.3605,-0.672
-0.0435,-0.3615,-0.6725
-0.045,-0.3625,-0.6705
-0.044,-0.361,-0.666
-0.0465,-0.3605,-0.665
-0.0465,-0.3605,-0.6625
-0.046,-0.361,-0.665
-0.049,-0.3625,-0.669
-0.0475,-0.361,-0.6695
-0.046,-0.361,-0.6725
-0.0445,-0.362,-0.6695
-0.043,-0.363,-0.668
-0.0465,-0.3625,-0.671
-0.0445,-0.3625,-0.671
-0.042,-0.362,-0.672
-0.041,-0.3625,-0.676
-0.0405,-0.365,-0.682
-0.043,-0.3645,-0.679
-0.043,-0.364,-0.6715
-0.0475,-0.364,-0.67
-0.0505,-0.365,-0.6695
-0.051,-0.3655,-0.6715
-0.05,-0.364,-0.673
-0.049,-0.3625,-0.6695
-0.049,-0.3635,-0.671
-0.0465,-0.3635,-0.667
-0.044,-0.364,-0.6635
-0.041,-0.3645,-0.6645
-0.04,-0.364,-0.664
-0.042,-0.3655,-0.669
-0.044,-0.3665,-0.6705
-0.047,-0.3655,-0.672
-0.0455,-0.3655,-0.672
-0.0455,-0.366,-0.6725
-0.0465,-0.3655,-0.6765
-0.0435,-0.3645,-0.6715
-0.046,-0.3665,-0.6735
-0.0445,-0.366,-0.6725
-0.046,-0.3645,-0.669
-0.0465,-0.3675,-0.672
-0.045,-0.369,-0.673
-0.0525,-0.3685,-0.6735
-0.0535,-0.3685,-0.6745
-0.0485,-0.366,-0.673
-0.045,-0.3665,-0.6695
-0.047,-0.3675,-0.664
-0.0485,-0.3655,-0.66
-0.0475,-0.365,-0.665
-0.044,-0.368,-0.67
-0.045,-0.368,-0.674
-0.048,-0.366,-0.678
-0.048,-0.365,-0.68
-0.0505,-0.3645,-0.6805
-0.0475,-0.366,-0.6805
-0.047,-0.366,-0.6805
-0.047,-0.3655,-0.677
-0.048,-0.3665,-0.679
-0.051,-0.365,-0.6795
-0.05,-0.364,-0.6755
-0.05,-0.3595,-0.674
-0.051,-0.3595,-0.673
-0.0535,-0.367,-0.6725
-0.054,-0.367,-0.671
-0.0505,-0.366,-0.671
-0.0515,-0.3665,-0.6725
-0.048,-0.364,-0.667
-0.0475,-0.3635,-0.666
-0.0515,-0.3655,-0.6695
-0.0495,-0.3655,-0.6725
-0.0475,-0.366,-0.6745
-0.045,-0.366,-0.674
-0.047,-0.3655,-0.676
-0.046,-0.366,-0.6775
-0.046,-0.366,-0.674
-0.049,-0.3665,-0.6735
-0.0475,-0.367,-0.676
-0.046,-0.3665,-0.6755
-0.0455,-0.365,-0.6755
-0.0445,-0.364,-0.6745
-0.0435,-0.3635,-0.6735
-0.0455,-0.3645,-0.673
-0.0445,-0.366,-0.672
-0.044,-0.3655,-0.6725
-0.044,-0.364,-0.673
-0.045,-0.3645,-0.6735
-0.048,-0.3645,-0.674
-0.047,-0.364,-0.6745
-0.049,-0.365,-0.679
-0.0495,-0.365,-0.68
-0.049,-0.364,-0.6765
-0.0485,-0.366,-0.6745
-0.0475,-0.365,-0.6715
-0.0455,-0.3625,-0.6675
-0.0445,-0.365,-0.6665
-0.047,-0.3645,-0.668
-0.0475,-0.3625,-0.6675
-0.0465,-0.362,-0.6695
-0.0445,-0.363,-0.668
-0.0465,-0.364,-0.665
-0.0475,-0.3625,-0.662
-0.0485,-0.3615,-0.657
-0.05,-0.363,-0.6595
-0.0505,-0.3635,-0.658
-0.0505,-0.361,-0.653
-0.049,-0.3605,-0.6535
-0.049,-0.36,-0.6485
-0.0495,-0.359,-0.6435
-0.049,-0.358,-0.641
-0.0445,-0.356,-0.6385
-0.0455,-0.3555,-0.635
-0.047,-0.3535,-0.628
-0.0435,-0.3525,-0.625
-0.046,-0.352,-0.6225
-0.0495,-0.3515,-0.618
-0.0505,-0.352,-0.6145
-0.0505,-0.3515,-0.612
-0.05,-0.3535,-0.6125
-0.051,-0.352,-0.608
-0.0555,-0.3515,-0.6
-0.0565,-0.355,-0.599
-0.054,-0.354,-0.5985
-0.0555,-0.354,-0.601
-0.056,-0.3525,-0.604
-0.053,-0.3515,-0.606
-0.052,-0.3495,-0.6095
-0.0505,-0.346,-0.6035
-0.047,-0.345,-0.601
-0.0475,-0.345,-0.6035
-0.0475,-0.346,-0.608
-0.041,-0.346,-0.6065
-0.0375,-0.346,-0.599
-0.036,-0.344,-0.597
-0.038,-0.3435,-0.5975
-0.042,-0.345,-0.595
-0.04,-0.346,-0.5915
-0.039,-0.345,-0.5865
-0.04,-0.3435,-0.582
-0.0425,-0.344,-0.5775
-0.0465,-0.346,-0.5685
-0.0475,-0.345,-0.5605
-0.046,-0.3455,-0.553
-0.047,-0.351,-0.5495
-0.0475,-0.3505,-0.5385
-0.043,-0.3465,-0.533
-0.043,-0.3435,-0.5345
-0.042,-0.34,-0.5275
-0.0405,-0.339,-0.5235
-0.039,-0.338,-0.521
-0.0355,-0.338,-0.523
-0.0315,-0.336,-0.5315
-0.03,-0.335,-0.5365
-0.028,-0.3345,-0.541
-0.024,-0.3335,-0.543
-0.0235,-0.331,-0.541
-0.022,-0.33,-0.543
-0.0195,-0.3305,-0.5445
-0.0175,-0.3305,-0.549
-0.016,-0.331,-0.5535
-0.016,-0.331,-0.552
-0.0175,-0.332,-0.5545
-0.0205,-0.3325,-0.556
-0.019,-0.3315,-0.5575
-0.014,-0.329,-0.5585
-0.0095,-0.326,-0.5605
-0.0085,-0.3215,-0.5635
-0.004,-0.315,-0.566
0.001,-0.314,-0.5675
-0.001,-0.3135,-0.573
-0.002,-0.3095,-0.581
-0.0015,-0.3075,-0.5865
-0.002,-0.303,-0.592
0.0035,-0.299,-0.594
0.0075,-0.295,-0.599
0.0075,-0.293,-0.6065
0.01,-0.294,-0.611
0.013,-0.2945,-0.62
0.013,-0.2945,-0.626
0.013,-0.2935,-0.6215
0.011,-0.2935,-0.617
0.0065,-0.2945,-0.617
0.006,-0.294,-0.6205
0.007,-0.2945,-0.623
0.007,-0.2965,-0.62
0.001,-0.2975,-0.617
-0.005,-0.297,-0.614
-0.0075,-0.2995,-0.6155
-0.0115,-0.3,-0.6105
-0.0135,-0.299,-0.608
-0.0125,-0.2995,-0.6155
-0.0105,-0.3015,-0.6175
-0.0115,-0.307,-0.622
-0.014,-0.3085,-0.626
-0.015,-0.3105,-0.6325
-0.0135,-0.312,-0.6405
-0.015,-0.3145,-0.643
-0.02,-0.32,-0.647
-0.0275,-0.327,-0.653
-0.0335,-0.3315,-0.6535
-0.033,-0.3345,-0.6485
-0.0335,-0.336,-0.644
-0.037,-0.3385,-0.646
-0.038,-0.3415,-0.652
-0.0435,-0.344,-0.658
-0.048,-0.346,-0.659
-0.05,-0.348,-0.6635
-0.052,-0.352,-0.6685
-0.0565,-0.355,-0.6675
-0.0585,-0.358,-0.6695
-0.0495,-0.358,-0.672
-0.0485,-0.3595,-0.6755
-0.05,-0.3625,-0.6795
-0.0535,-0.3635,-0.682
-0.0585,-0.366,-0.685
-0.0605,-0.3685,-0.6875
-0.063,-0.37,-0.687
-0.061,-0.371,-0.688
-0.0605,-0.3725,-0.6945
-0.06,-0.3725,-0.6945
-0.0585,-0.375,-0.6885
-0.0565,-0.3755,-0.688
-0.058,-0.376,-0.688
-0.0575,-0.375,-0.688
-0.0545,-0.3765,-0.691
-0.0555,-0.3785,-0.69
-0.0555,-0.3765,-0.6895
-0.0585,-0.378,-0.687
-0.061,-0.3785,-0.6855
-0.0605,-0.3785,-0.69
-0.0625,-0.3765,-0.696
-0.0635,-0.3795,-0.6985
-0.065,-0.3835,-0.6985
-0.0635,-0.3825,-0.7025
-0.062,-0.382,-0.702
-0.0635,-0.381,-0.6995
-0.061,-0.38,-0.6955
-0.0585,-0.3805,-0.6965
-0.0605,-0.381,-0.7
-0.063,-0.379,-0.7
-0.065,-0.38,-0.6985
-0.066,-0.3785,-0.6955
-0.0645,-0.3785,-0.6975
-0.0635,-0.379,-0.697
-0.0635,-0.3785,-0.6925
-0.066,-0.3795,-0.6915
-0.068,-0.3795,-0.689
-0.07,-0.38,-0.687
-0.0735,-0.3805,-0.689
-0.0715,-0.3825,-0.693
-0.0705,-0.385,-0.7035
-0.071,-0.388,-0.7075
-0.071,-0.3885,-0.7065
-0.069,-0.3875,-0.713
-0.068,-0.388,-0.7235
-0.065,-0.3895,-0.731
-0.06,-0.3925,-0.74
-0.054,-0.3855,-0.7505
-0.047,-0.377,-0.755
-0.0475,-0.377,-0.7565
-0.047,-0.376,-0.755
-0.049,-0.378,-0.749
-0.055,-0.378,-0.7355
-0.0605,-0.3815,-0.7245
-0.0635,-0.3775,-0.7145
-0.055,-0.3495,-0.6975
-0.0425,-0.312,-0.682
-0.028,-0.2745,-0.6645
-0.012,-0.235,-0.6535
0.003,-0.1875,-0.6455
0.023,-0.1345,-0.6325
0.045,-0.086,-0.624
0.0675,-0.0345,-0.6065
0.092,0.0245,-0.5885
0.125,0.1065,-0.574
0.1715,0.217,-0.5585
0.212,0.3365,-0.5345
0.2345,0.4485,-0.4855
0.2525,0.5615,-0.425
0.276,0.6925,-0.3655
0.3015,0.836,-0.3025
0.3395,0.9905,-0.247
0.383,1.145,-0.2075
0.412,1.285,-0.168
0.445,1.4175,-0.131
0.4715,1.54,-0.0895
0.494,1.652,-0.042
0.5195,1.747,-0.0025
0.5385,1.8135,0.022
0.552,1.8425,0.032
0.5545,1.8425,0.043
0.555,1.8245,0.073
0.535,1.768,0.101
0.51,1.681,0.1115
0.485,1.591,0.129
0.4415,1.4745,0.1495
0.4005,1.341,0.1615
0.358,1.213,0.164
0.3105,1.08,0.165
0.2545,0.94,0.1745
0.1965,0.805,0.1755
0.147,0.674,0.1745
0.106,0.544,0.1935
0.064,0.414,0.1955
0.0245,0.294,0.187
-0.008,0.1835,0.186
-0.027,0.0985,0.162
-0.017,0.0585,0.1285
-0.0145,0.0195,0.092
-0.0225,-0.025,0.0535
-0.028,-0.065,0.0085
-0.038,-0.107,-0.043
-0.038,-0.145,-0.0975
-0.045,-0.18,-0.149
-0.054,-0.214,-0.1785
-0.0575,-0.2415,-0.1845
-0.0605,-0.2665,-0.1915
-0.0615,-0.2855,-0.209
-0.066,-0.3025,-0.231
-0.069,-0.318,-0.2595
-0.071,-0.324,-0.2815
-0.0745,-0.3335,-0.3065
-0.0745,-0.3385,-0.346
-0.0755,-0.3495,-0.377
-0.074,-0.356,-0.3965
-0.0725,-0.354,-0.4185
-0.075,-0.3535,-0.435
-0.0735,-0.347,-0.4475
-0.0755,-0.3415,-0.457
-0.0725,-0.3395,-0.474
-0.064,-0.3405,-0.499
-0.062,-0.335,-0.5185
-0.0595,-0.3285,-0.5365
-0.054,-0.323,-0.5495
-0.0495,-0.3195,-0.5605
-0.049,-0.3195,-0.5665
-0.0485,-0.3195,-0.5725
-0.047,-0.3185,-0.579
-0.047,-0.3195,-0.586
-0.0485,-0.3225,-0.594
-0.0505,-0.3255,-0.5955
-0.051,-0.329,-0.598
-0.0495,-0.331,-0.6035
-0.049,-0.333,-0.6075
-0.0505,-0.336,-0.61
-0.0525,-0.3385,-0.612
-0.0545,-0.3385,-0.617
-0.054,-0.3375,-0.618
-0.053,-0.339,-0.619
-0.052,-0.338,-0.624
-0.049,-0.338,-0.631
-0.0475,-0.3395,-0.635
-0.05,-0.34,-0.6365
-0.05,-0.3425,-0.6365
-0.0515,-0.343,-0.6375
-0.0535,-0.344,-0.6385
-0.0495,-0.3455,-0.635
-0.0475,-0.345,-0.6375
-0.047,-0.3455,-0.64
-0.047,-0.347,-0.6395
-0.0515,-0.3475,-0.6415
-0.0505,-0.347,-0.641
-0.0495,-0.347,-0.645
-0.0505,-0.348,-0.649
-0.0505,-0.3495,-0.6475
-0.052,-0.348,-0.6475
-0.049,-0.3475,-0.6475
-0.047,-0.348,-0.647
-0.0455,-0.3475,-0.6465
-0.0465,-0.349,-0.648
-0.045,-0.3485,-0.653
-0.043,-0.347,-0.6565
-0.045,-0.3465,-0.6515
-0.0455,-0.346,-0.6495
-0.047,-0.3465,-0.65
-0.0475,-0.347,-0.6505
-0.0455,-0.3465,-0.655
-0.042,-0.3465,-0.6615
-0.041,-0.346,-0.661
-0.038,-0.344,-0.6535
-0.0405,-0.344,-0.6485
-0.0455,-0.343,-0.648
-0.0475,-0.344,-0.65
-0.0495,-0.3445,-0.655
-0.048,-0.345,-0.651
-0.045,-0.345,-0.6445
-0.0425,-0.3425,-0.6475
-0.0445,-0.342,-0.645
-0.0465,-0.3425,-0.6425
-0.047,-0.3445,-0.646
-0.0475,-0.345,-0.6465
-0.044,-0.342,-0.644
-0.0435,-0.3425,-0.6425
-0.044,-0.344,-0.642
-0.0435,-0.3405,-0.6455
-0.044,-0.3345,-0.6435
-0.0435,-0.3375,-0.644
-0.043,-0.3425,-0.65
-0.041,-0.34,-0.648
-0.0385,-0.338,-0.644
-0.0405,-0.3365,-0.6425
-0.0415,-0.337,-0.642
-0.042,-0.3375,-0.6415
-0.043,-0.338,-0.6455
-0.0435,-0.3365,-0.6475
-0.0475,-0.335,-0.648
-0.05,-0.3345,-0.641
-0.05,-0.3325,-0.6365
-0.0505,-0.334,-0.64
-0.0495,-0.334,-0.6375
-0.0485,-0.3345,-0.641
-0.0505,-0.3345,-0.642
-0.0515,-0.3345,-0.6415
-0.049,-0.3345,-0.645
-0.0465,-0.333,-0.6435
-0.0445,-0.3325,-0.6405
-0.043,-0.3325,-0.636
-0.041,-0.3325,-0.6345
-0.04,-0.3315,-0.637
-0.037,-0.331,-0.6405
-0.0385,-0.33,-0.642
-0.0445,-0.33,-0.639
-0.0395,-0.3285,-0.637
-0.038,-0.3265,-0.635
-0.0405,-0.328,-0.637
-0.04,-0.3285,-0.638
-0.0445,-0.3275,-0.6305
-0.0455,-0.327,-0.6285
-0.0435,-0.326,-0.628
-0.045,-0.3255,-0.628
-0.04,-0.3245,-0.628
-0.04,-0.3235,-0.6225
-0.041,-0.3235,-0.619
-0.0405,-0.321,-0.623
-0.04,-0.3215,-0.6285
-0.037,-0.32,-0.624
-0.04,-0.3185,-0.6225
-0.039,-0.319,-0.625
-0.037,-0.317,-0.623
-0.0395,-0.317,-0.62
-0.04,-0.318,-0.619
-0.0415,-0.316,-0.617
-0.0405,-0.3135,-0.613
-0.04,-0.3135,-0.616
-0.042,-0.3125,-0.617
-0.0425,-0.3105,-0.6155
-0.0425,-0.3085,-0.6125
-0.0405,-0.306,-0.608
-0.038,-0.306,-0.6105
-0.0365,-0.3055,-0.6085
-0.037,-0.304,-0.605
-0.036,-0.303,-0.6075
-0.0355,-0.3015,-0.6065
-0.0345,-0.2995,-0.607
-0.0325,-0.2975,-0.607
-0.0285,-0.2975,-0.602
-0.027,-0.296,-0.6005
-0.03,-0.2945,-0.6045
-0.03,-0.2945,-0.602
-0.0335,-0.294,-0.6005
-0.037,-0.292,-0.601
-0.0355,-0.2905,-0.5955
-0.031,-0.287,-0.592
-0.0255,-0.2855,-0.5925
-0.023,-0.2845,-0.59
-0.0175,-0.283,-0.5845
-0.017,-0.2815,-0.5845
-0.0225,-0.279,-0.5865
-0.023,-0.2785,-0.5855
-0.0195,-0.2775,-0.5845
-0.0165,-0.2765,-0.585
-0.018,-0.2745,-0.5865
-0.021,-0.2735,-0.586
-0.02,-0.271,-0.5815
-0.02,-0.269,-0.5805
-0.02,-0.2675,-0.579
-0.019,-0.2645,-0.5745
-0.0245,-0.264,-0.5765
-0.027,-0.262,-0.578
-0.0265,-0.2605,-0.576
-0.0255,-0.2565,-0.5685
-0.0225,-0.2525,-0.563
-0.0195,-0.2505,-0.565
-0.0195,-0.25,-0.566
-0.022,-0.2455,-0.565
-0.016,-0.238,-0.5605
-0.014,-0.2395,-0.557
-0.0145,-0.2405,-0.555
-0.013,-0.236,-0.5535
-0.0125,-0.2315,-0.5535
-0.0095,-0.229,-0.548
-0.006,-0.2245,-0.545
-0.0055,-0.2215,-0.5475
-0.005,-0.2205,-0.55
-0.003,-0.216,-0.55
-0.0005,-0.212,-0.539
0.0035,-0.209,-0.5335
0.0055,-0.205,-0.5365
0.0025,-0.2025,-0.5385
0.0015,-0.1995,-0.539
-0.0005,-0.196,-0.534
-0.0005,-0.192,-0.531
0.0015,-0.1875,-0.529
0.001,-0.1855,-0.5235
0.0035,-0.183,-0.5215
0.005,-0.178,-0.519
0.0055,-0.174,-0.512
0.0045,-0.169,-0.506
0.0065,-0.1635,-0.5035
0.0085,-0.161,-0.505
0.009,-0.1585,-0.5055
0.0135,-0.154,-0.504
0.015,-0.148,-0.497
0.0165,-0.1425,-0.491
0.0205,-0.1375,-0.4875
0.021,-0.132,-0.4825
0.022,-0.128,-0.479
0.0225,-0.1255,-0.4775
0.0225,-0.1205,-0.4745
0.0235,-0.1155,-0.4725
0.022,-0.1095,-0.469
0.024,-0.1045,-0.463
0.025,-0.1,-0.463
0.0295,-0.094,-0.4585
0.0345,-0.0895,-0.451
0.031,-0.085,-0.4505
0.0305,-0.0785,-0.4475
0.0315,-0.0735,-0.4385
0.032,-0.0695,-0.4345
0.033,-0.0645,-0.434
0.038,-0.0605,-0.429
0.0465,-0.0545,-0.4285
0.0495,-0.05,-0.4245
0.0515,-0.0455,-0.4205
0.0495,-0.0415,-0.4225
0.045,-0.0395,-0.421
0.0475,-0.0355,-0.4165
0.054,-0.032,-0.4115
0.0585,-0.026,-0.406
0.06,-0.0205,-0.4015
0.0565,-0.0175,-0.3975
0.054,-0.0135,-0.396
0.0535,-0.0095,-0.398
0.055,-0.006,-0.3955
0.0565,-0.0045,-0.392
0.056,-0.0025,-0.3895
0.056,0.002,-0.3835
0.0555,0.0055,-0.3785
0.0535,0.008,-0.3775
0.053,0.011,-0.3755
0.058,0.0145,-0.3745
0.0585,0.017,-0.378
0.056,0.0195,-0.3735
0.0545,0.0225,-0.363
0.053,0.0245,-0.359
0.055,0.0275,-0.3575
0.0575,0.0295,-0.353
0.06,0.031,-0.352
0.0625,0.033,-0.355
0.0625,0.035,-0.3525
0.0625,0.0365,-0.3465
0.0585,0.038,-0.3465
0.0525,0.038,-0.3485
0.054,0.0375,-0.3465
0.0575,0.0405,-0.3465
0.058,0.0395,-0.3445
0.057,0.039,-0.3425
0.053,0.039,-0.344
0.0475,0.0365,-0.344
0.045,0.034,-0.3475
0.047,0.0305,-0.356
0.05,0.028,-0.3615
0.0495,0.0235,-0.367
0.046,0.02,-0.368
0.0455,0.019,-0.365
0.044,0.0175,-0.373
0.0425,0.011,-0.38
0.044,0.0005,-0.382
0.0455,-0.004,-0.386
0.045,-0.008,-0.39
0.042,-0.0145,-0.392
0.041,-0.019,-0.3955
0.039,-0.026,-0.4015
0.035,-0.0335,-0.4105
0.0315,-0.0405,-0.416
0.0255,-0.048,-0.4195
0.024,-0.055,-0.4255
0.025,-0.061,-0.4285
0.023,-0.0685,-0.434
0.024,-0.0755,-0.4395
0.0245,-0.0815,-0.4475
0.021,-0.088,-0.455
0.0185,-0.095,-0.4585
0.017,-0.1015,-0.462
0.015,-0.1075,-0.4665
0.01,-0.1165,-0.4735
0.007,-0.1245,-0.479
0.005,-0.1305,-0.4855
0.0055,-0.136,-0.4915
0.0045,-0.143,-0.4985
-0.0015,-0.1515,-0.5075
-0.0015,-0.1555,-0.509
0.002,-0.161,-0.507
-0.0015,-0.169,-0.51
-0.0105,-0.1755,-0.515
-0.0145,-0.18,-0.5175
-0.0125,-0.1835,-0.519
-0.014,-0.19,-0.522
-0.0165,-0.193,-0.5215
-0.0175,-0.1995,-0.524
-0.0195,-0.206,-0.534
-0.019,-0.21,-0.5395
-0.02,-0.216,-0.543
-0.024,-0.219,-0.5445
-0.026,-0.2235,-0.546
-0.0265,-0.228,-0.5505
-0.0255,-0.2305,-0.553
-0.0255,-0.234,-0.553
-0.029,-0.2375,-0.552
-0.032,-0.24,-0.555
-0.0325,-0.244,-0.5595
-0.0355,-0.248,-0.561
-0.036,-0.251,-0.565
-0.0355,-0.253,-0.5665
-0.0385,-0.256,-0.5645
-0.0415,-0.26,-0.5685
-0.043,-0.262,-0.574
-0.0425,-0.2625,-0.5715
-0.0445,-0.2645,-0.568
-0.047,-0.266,-0.5705
-0.046,-0.267,-0.5745
-0.043,-0.269,-0.5745
-0.0415,-0.271,-0.5735
-0.0435,-0.2735,-0.577
-0.0435,-0.274,-0.579
-0.0415,-0.2745,-0.5795
-0.0405,-0.275,-0.581
-0.04,-0.2755,-0.581
-0.04,-0.2785,-0.586
-0.04,-0.28,-0.588
-0.043,-0.281,-0.585
-0.0465,-0.282,-0.583
-0.0465,-0.2815,-0.5815
-0.0465,-0.282,-0.5845
-0.0445,-0.284,-0.5835
-0.041,-0.285,-0.5835
-0.037,-0.286,-0.583
-0.039,-0.285,-0.584
-0.0425,-0.287,-0.586
-0.0425,-0.2875,-0.5875
-0.0385,-0.2875,-0.5935
-0.0335,-0.288,-0.5945
-0.033,-0.286,-0.5935
-0.0365,-0.288,-0.593
-0.037,-0.2885,-0.588
-0.037,-0.2875,-0.585
-0.042,-0.2885,-0.5875
-0.049,-0.292,-0.5885
-0.0505,-0.292,-0.5905
-0.046,-0.288,-0.5915
-0.046,-0.2865,-0.5815
-0.0465,-0.291,-0.579
-0.043,-0.2945,-0.584
-0.0435,-0.2925,-0.5875
-0.046,-0.293,-0.5875
-0.0435,-0.2925,-0.5825
-0.044,-0.2925,-0.5845
-0.0465,-0.292,-0.583
-0.047,-0.29,-0.5795
-0.049,-0.2935,-0.58
-0.049,-0.2945,-0.5845
-0.048,-0.293,-0.589
-0.0475,-0.294,-0.5865
-0.0485,-0.293,-0.583
-0.047,-0.2935,-0.581
-0.0465,-0.294,-0.583
-0.0445,-0.2945,-0.583
-0.044,-0.2935,-0.583
-0.049,-0.2935,-0.5865
-0.0495,-0.295,-0.585
-0.0495,-0.295,-0.583
-0.051,-0.296,-0.5895
-0.0525,-0.297,-0.5885
-0.047,-0.2975,-0.5815
-0.046,-0.297,-0.59
-0.049,-0.297,-0.5935
-0.0495,-0.2985,-0.585
-0.0555,-0.3,-0.583
-0.056,-0.3005,-0.5815
-0.055,-0.3,-0.581
-0.0575,-0.2995,-0.5875
-0.053,-0.3005,-0.592
-0.051,-0.3,-0.5885
-0.0495,-0.3005,-0.585
-0.0495,-0.3005,-0.5845
-0.053,-0.302,-0.588
-0.0475,-0.3025,-0.59
-0.0455,-0.302,-0.5915
-0.048,-0.302,-0.594
-0.0515,-0.303,-0.5945
-0.056,-0.3035,-0.5925
-0.0565,-0.3025,-0.5865
-0.057,-0.3025,-0.5865
-0.0595,-0.3055,-0.5905
-0.06,-0.307,-0.5865
-0.0565,-0.306,-0.586
-0.0575,-0.3055,-0.587
-0.057,-0.303,-0.5845
-0.0585,-0.303,-0.5825
-0.061,-0.305,-0.583
-0.058,-0.3055,-0.5865
-0.057,-0.306,-0.5905
-0.057,-0.3075,-0.5905
-0.06,-0.308,-0.59
-0.0605,-0.3055,-0.598
-0.0595,-0.307,-0.5995
-0.06,-0.3075,-0.594
-0.0595,-0.308,-0.5935
-0.0545,-0.3085,-0.594
-0.055,-0.307,-0.593
-0.0605,-0.31,-0.5895
-0.0605,-0.3095,-0.5885
-0.06,-0.309,-0.589
-0.0595,-0.3085,-0.589
-0.0615,-0.31,-0.5895
-0.0615,-0.311,-0.587
-0.0575,-0.309,-0.586
-0.0555,-0.309,-0.584
-0.057,-0.3085,-0.5825
-0.0535,-0.308,-0.58
-0.049,-0.307,-0.5815
-0.0505,-0.3085,-0.586
-0.053,-0.3115,-0.5885
-0.0535,-0.311,-0.588
-0.0515,-0.3085,-0.592
-0.05,-0.3055,-0.5955
-0.0505,-0.309,-0.589
-0.0505,-0.314,-0.591
-0.0525,-0.3135,-0.595
-0.0545,-0.3125,-0.5975
-0.056,-0.3115,-0.598
-0.0545,-0.31,-0.5945
-0.053,-0.3095,-0.5955
-0.056,-0.3105,-0.593
-0.056,-0.311,-0.589
-0.055,-0.311,-0.5895
-0.054,-0.3115,-0.592
-0.0525,-0.31,-0.5915
-0.0505,-0.3085,-0.5895
-0.053,-0.3115,-0.59
-0.054,-0.311,-0.5935
-0.05,-0.3085,-0.595
-0.0525,-0.309,-0.5945
-0.052,-0.3095,-0.594
-0.0485,-0.308,-0.5965
-0.047,-0.3075,-0.597
-0.044,-0.309,-0.6005
-0.047,-0.3105,-0.6065
-0.0495,-0.3115,-0.6065
-0.048,-0.3115,-0.608
-0.048,-0.31,-0.604
-0.047,-0.308,-0.601
-0.047,-0.3085,-0.6
-0.0475,-0.3085,-0.5975
-0.047,-0.3085,-0.5965
-0.046,-0.3085,-0.5985
-0.0445,-0.3085,-0.6005
-0.051,-0.3095,-0.5985
-0.057,-0.309,-0.5985
-0.056,-0.3105,-0.6
-0.055,-0.3115,-0.6035
-0.0555,-0.3115,-0.6035
-0.057,-0.3115,-0.601
-0.0535,-0.3115,-0.6025
-0.0545,-0.314,-0.605
-0.0575,-0.3135,-0.605
-0.053,-0.3135,-0.604
-0.054,-0.313,-0.602
-0.0535,-0.3115,-0.6015
-0.0505,-0.3125,-0.6065
-0.0505,-0.3115,-0.6045
-0.0505,-0.311,-0.6015
-0.0545,-0.3115,-0.6075
-0.0565,-0.311,-0.606
-0.055,-0.311,-0.6035
-0.054,-0.309,-0.602
-0.055,-0.3095,-0.602
-0.0575,-0.311,-0.6035
-0.0575,-0.3105,-0.599
-0.0575,-0.3105,-0.6
-0.053,-0.31,-0.607
-0.054,-0.3105,-0.6095
-0.0535,-0.3115,-0.6085
-0.0535,-0.3125,-0.6105
-0.056,-0.311,-0.611
-0.0495,-0.311,-0.609
-0.048,-0.3125,-0.6095
-0.047,-0.313,-0.6115
-0.045,-0.3125,-0.6125
-0.0435,-0.3115,-0.6095
-0.0455,-0.3125,-0.611
-0.047,-0.311,-0.612
-0.048,-0.31,-0.61
-0.052,-0.3115,-0.611
-0.0535,-0.3125,-0.612
-0.055,-0.3135,-0.612
-0.0555,-0.312,-0.6095
-0.053,-0.312,-0.605
-0.051,-0.3135,-0.6045
-0.0505,-0.3185,-0.6125
-0.05,-0.318,-0.6185
-0.0495,-0.3135,-0.616
-0.0495,-0.3165,-0.6145
-0.047,-0.3175,-0.6165
-0.049,-0.3175,-0.62
-0.0545,-0.3185,-0.6195
-0.053,-0.318,-0.615
-0.0495,-0.3185,-0.6135
-0.0505,-0.32,-0.614
-0.053,-0.3225,-0.613
-0.052,-0.3215,-0.61
-0.0505,-0.32,-0.6035
-0.048,-0.316,-0.6035
-0.0505,-0.3195,-0.611
-0.054,-0.322,-0.612
-0.054,-0.32,-0.608
-0.057,-0.323,-0.605
-0.0555,-0.322,-0.605
-0.0545,-0.3215,-0.606
-0.0535,-0.3225,-0.603
-0.0505,-0.3235,-0.61
-0.053,-0.325,-0.6205
-0.0545,-0.3275,-0.622
-0.054,-0.3275,-0.6195
-0.0525,-0.3255,-0.6185
-0.0505,-0.328,-0.6155
-0.05,-0.3275,-0.612
-0.0475,-0.328,-0.6165
-0.049,-0.331,-0.62
-0.051,-0.3315,-0.6215
-0.049,-0.3305,-0.621
-0.0505,-0.3295,-0.618
-0.0525,-0.33,-0.6165
-0.0505,-0.3295,-0.6175
-0.0495,-0.3315,-0.6135
-0.0505,-0.3325,-0.6145
-0.052,-0.3305,-0.6155
-0.0495,-0.3315,-0.612
-0.048,-0.3315,-0.6105
-0.0505,-0.332,-0.6085
-0.0525,-0.334,-0.6105
-0.0545,-0.3325,-0.612
-0.057,-0.3345,-0.6145
-0.0575,-0.3365,-0.6155
-0.0585,-0.335,-0.6145
-0.063,-0.3355,-0.6155
-0.062,-0.338,-0.6165
-0.058,-0.338,-0.621
-0.062,-0.3385,-0.623
-0.064,-0.338,-0.621
-0.065,-0.3365,-0.619
-0.065,-0.337,-0.6185
-0.064,-0.3375,-0.621
-0.063,-0.337,-0.6195
-0.06,-0.3385,-0.616
-0.0595,-0.338,-0.6205
-0.0575,-0.3375,-0.623
-0.057,-0.338,-0.621
-0.0565,-0.339,-0.616
-0.056,-0.3385,-0.6105
-0.0585,-0.3395,-0.6115
-0.0595,-0.342,-0.613
-0.0565,-0.34,-0.613
-0.0525,-0.3405,-0.6135
-0.053,-0.341,-0.6085
-0.054,-0.34,-0.6065
-0.054,-0.3435,-0.6145
-0.0545,-0.3445,-0.6185
-0.0565,-0.345,-0.622
-0.057,-0.346,-0.6215
-0.0575,-0.345,-0.617
-0.056,-0.3455,-0.6135
-0.054,-0.344,-0.6115
-0.054,-0.3445,-0.613
-0.054,-0.3465,-0.6135
-0.0545,-0.347,-0.6155
-0.055,-0.347,-0.621
-0.0575,-0.345,-0.6205
-0.056,-0.3455,-0.618
-0.0565,-0.3475,-0.6175
-0.055,-0.3475,-0.6175
-0.05,-0.3485,-0.619
-0.0525,-0.348,-0.62
-0.0565,-0.347,-0.62
-0.059,-0.3485,-0.6205
-0.062,-0.3515,-0.623
-0.063,-0.3525,-0.6245
-0.0655,-0.3505,-0.6255
-0.0675,-0.3505,-0.625
-0.065,-0.35,-0.6235
-0.0635,-0.3485,-0.6205
-0.063,-0.3445,-0.615
-0.063,-0.3475,-0.6165
-0.0645,-0.3525,-0.6225
-0.063,-0.3525,-0.6265
-0.0615,-0.3515,-0.6265
-0.0625,-0.349,-0.623
-0.063,-0.349,-0.619
-0.064,-0.35,-0.616
-0.0625,-0.351,-0.616
-0.0605,-0.3505,-0.6225
-0.061,-0.352,-0.624
-0.0605,-0.3525,-0.6225
-0.0605,-0.3525,-0.6235
-0.061,-0.3525,-0.623
-0.0615,-0.351,-0.624
-0.062,-0.352,-0.6235
-0.061,-0.351,-0.621
-0.058,-0.3505,-0.624
-0.0595,-0.3515,-0.6275
-0.061,-0.352,-0.6265
-0.061,-0.352,-0.622
-0.06,-0.353,-0.619
-0.057,-0.3535,-0.6225
-0.0575,-0.3525,-0.622
-0.057,-0.3535,-0.621
-0.059,-0.3535,-0.62
-0.0625,-0.352,-0.615
-0.064,-0.352,-0.6165
-0.063,-0.353,-0.617
-0.0615,-0.354,-0.618
-0.056,-0.3535,-0.619
-0.0515,-0.3515,-0.6195
-0.054,-0.352,-0.623
-0.055,-0.351,-0.6235
-0.058,-0.353,-0.624
-0.056,-0.3535,-0.6225
-0.0545,-0.353,-0.6225
-0.0555,-0.3555,-0.6205
-0.0525,-0.355,-0.618
-0.0535,-0.355,-0.6205
-0.056,-0.3545,-0.6175
-0.0565,-0.3545,-0.615
-0.057,-0.355,-0.6175
-0.0555,-0.355,-0.6195
-0.0555,-0.3565,-0.6205
-0.0575,-0.3565,-0.6195
-0.061,-0.355,-0.619
-0.06,-0.356,-0.619
-0.0585,-0.357,-0.6145
-0.057,-0.355,-0.6185
-0.055,-0.3565,-0.625
-0.061,-0.3585,-0.628
-0.0615,-0.357,-0.6335
-0.0595,-0.357,-0.63
-0.06,-0.3575,-0.6255
-0.0585,-0.3575,-0.6255
-0.057,-0.358,-0.625
-0.059,-0.359,-0.6285
-0.0585,-0.3585,-0.6285
-0.0565,-0.357,-0.6245
-0.0585,-0.3565,-0.6175
-0.06,-0.3575,-0.6135
-0.0605,-0.3575,-0.6215
-0.0615,-0.3585,-0.621
-0.0595,-0.359,-0.618
-0.0585,-0.359,-0.6185
-0.0625,-0.359,-0.617
-0.0635,-0.3585,-0.615
-0.0635,-0.36,-0.616
-0.064,-0.3595,-0.6165
-0.061,-0.36,-0.6145
-0.06,-0.3595,-0.615
-0.063,-0.3585,-0.615
-0.065,-0.3605,-0.6185
-0.07,-0.361,-0.6185
-0.071,-0.3605,-0.6175
-0.0675,-0.361,-0.6205
-0.0695,-0.361,-0.625
-0.071,-0.361,-0.6255
-0.0715,-0.3595,-0.618
-0.071,-0.36,-0.613
-0.0705,-0.3605,-0.611
-0.0725,-0.3595,-0.6115
-0.0715,-0.3605,-0.612
-0.071,-0.362,-0.6135
-0.076,-0.3615,-0.618
-0.077,-0.36,-0.617
-0.0745,-0.36,-0.6105
-0.0715,-0.36,-0.6085
-0.07,-0.3605,-0.613
-0.0725,-0.3605,-0.6175
-0.0725,-0.358,-0.6155
-0.0705,-0.3575,-0.6145
-0.071,-0.36,-0.621
-0.0695,-0.361,-0.6255
-0.068,-0.3605,-0.626
-0.0675,-0.3625,-0.625
-0.066,-0.361,-0.624
-0.065,-0.3605,-0.6235
-0.067,-0.362,-0.6225
-0.0695,-0.362,-0.6175
-0.069,-0.361,-0.616
-0.0685,-0.36,-0.616
-0.068,-0.363,-0.617
-0.067,-0.3625,-0.619
-0.0675,-0.361,-0.619
-0.0665,-0.3625,-0.6185
-0.0635,-0.3625,-0.6155
-0.064,-0.3625,-0.616
-0.0625,-0.3625,-0.6165
-0.0605,-0.362,-0.6145
-0.0575,-0.36,-0.6125
-0.059,-0.359,-0.6095
-0.0585,-0.358,-0.607
-0.057,-0.3585,-0.607
-0.0565,-0.359,-0.607
-0.0515,-0.3575,-0.61
-0.053,-0.357,-0.6125
-0.0515,-0.355,-0.6065
-0.0505,-0.353,-0.598
-0.05,-0.3515,-0.592
-0.0455,-0.3525,-0.586
-0.0445,-0.353,-0.5785
-0.0485,-0.3525,-0.5725
-0.0555,-0.352,-0.569
-0.062,-0.354,-0.57
-0.0615,-0.3525,-0.5685
-0.06,-0.353,-0.5605
-0.059,-0.353,-0.551
-0.0565,-0.352,-0.55
-0.059,-0.3545,-0.5555
-0.061,-0.353,-0.5565
-0.0635,-0.3535,-0.5565
-0.0635,-0.353,-0.559
-0.059,-0.354,-0.561
-0.0565,-0.352,-0.557
-0.056,-0.349,-0.5565
-0.054,-0.3495,-0.559
-0.0495,-0.346,-0.5595
-0.0505,-0.346,-0.557
-0.0535,-0.346,-0.552
-0.0545,-0.345,-0.551
-0.0525,-0.3465,-0.549
-0.0505,-0.3465,-0.5455
-0.051,-0.3455,-0.5455
-0.052,-0.3435,-0.5455
-0.0515,-0.3425,-0.538
-0.051,-0.342,-0.5305
-0.0515,-0.341,-0.523
-0.0495,-0.342,-0.516
-0.049,-0.3445,-0.512
-0.049,-0.3455,-0.5035
-0.052,-0.344,-0.5
-0.054,-0.343,-0.4955
-0.054,-0.3405,-0.4905
-0.052,-0.339,-0.485
-0.0475,-0.339,-0.479
-0.047,-0.3355,-0.479
-0.044,-0.3335,-0.48
-0.0395,-0.332,-0.476
-0.04,-0.3315,-0.4775
-0.04,-0.33,-0.4805
-0.0355,-0.3265,-0.487
-0.0315,-0.3275,-0.4925
-0.031,-0.326,-0.4905
-0.029,-0.3265,-0.494
-0.0275,-0.325,-0.494
-0.029,-0.326,-0.498
-0.03,-0.33,-0.5015
-0.027,-0.3285,-0.5035
-0.0265,-0.33,-0.5115
-0.0265,-0.331,-0.5135
-0.0265,-0.33,-0.5135
-0.024,-0.327,-0.519
-0.019,-0.3225,-0.5265
-0.015,-0.3205,-0.5275
-0.009,-0.3175,-0.5305
-0.005,-0.315,-0.5365
-0.006,-0.3135,-0.539
-0.005,-0.311,-0.5355
-0.002,-0.306,-0.535
-0.0005,-0.301,-0.542
-0.0015,-0.2985,-0.547
-0.003,-0.297,-0.5495
0.0035,-0.2945,-0.551
0.0035,-0.294,-0.5535
0.0005,-0.2915,-0.556
0.0035,-0.289,-0.5585
0.006,-0.2855,-0.558
0.0025,-0.291,-0.563
0.0,-0.296,-0.5685
0.0005,-0.2935,-0.569
-0.0015,-0.293,-0.571
-0.002,-0.293,-0.5715
-0.006,-0.295,-0.5755
-0.008,-0.294,-0.577
-0.0055,-0.2935,-0.5675
-0.008,-0.292,-0.559
-0.012,-0.2905,-0.562
-0.0125,-0.294,-0.5685
-0.014,-0.2995,-0.57
-0.0195,-0.305,-0.5735
-0.024,-0.308,-0.5795
-0.0275,-0.3115,-0.584
-0.032,-0.3145,-0.5865
-0.037,-0.316,-0.591
-0.0405,-0.3195,-0.5905
-0.043,-0.3255,-0.5945
-0.0455,-0.3305,-0.598
-0.0465,-0.335,-0.5965
-0.0435,-0.334,-0.599
-0.045,-0.3365,-0.6025
-0.05,-0.3405,-0.605
-0.0515,-0.3415,-0.605
-0.0535,-0.3425,-0.6125
-0.054,-0.3445,-0.6195
-0.056,-0.3505,-0.62
-0.059,-0.352,-0.6225
-0.06,-0.354,-0.627
-0.064,-0.357,-0.63
-0.0635,-0.3595,-0.6315
-0.0635,-0.361,-0.6315
-0.065,-0.3625,-0.6315
-0.066,-0.3665,-0.633
-0.067,-0.3685,-0.6345
-0.0675,-0.37,-0.634
-0.069,-0.37,-0.632
-0.072,-0.3735,-0.6365
-0.0745,-0.375,-0.643
-0.0715,-0.375,-0.646
-0.066,-0.3775,-0.6515
-0.0645,-0.377,-0.653
-0.068,-0.3775,-0.6535
-0.0695,-0.3765,-0.655
-0.07,-0.3785,-0.656
-0.073,-0.3795,-0.656
-0.072,-0.3795,-0.65
-0.072,-0.382,-0.6485
-0.0765,-0.3815,-0.6505
-0.0785,-0.381,-0.6485
-0.0795,-0.3805,-0.644
-0.081,-0.38,-0.643
-0.082,-0.3805,-0.645
-0.0835,-0.382,-0.644
-0.0845,-0.384,-0.6475
-0.0845,-0.383,-0.649
-0.0845,-0.3815,-0.6485
-0.0845,-0.3815,-0.6435
-0.085,-0.3825,-0.64
-0.084,-0.383,-0.6445
-0.0825,-0.382,-0.648
-0.08,-0.381,-0.648
-0.078,-0.3805,-0.65
-0.078,-0.381,-0.651
-0.0775,-0.3815,-0.6475
-0.078,-0.3815,-0.6445
-0.0765,-0.3815,-0.6445
-0.074,-0.381,-0.6505
-0.074,-0.3815,-0.6525
-0.0755,-0.383,-0.6515
-0.0775,-0.3865,-0.655
-0.0765,-0.3875,-0.655
-0.0765,-0.3885,-0.657
-0.0765,-0.3905,-0.664
-0.074,-0.391,-0.6725
-0.0715,-0.393,-0.681
-0.065,-0.3875,-0.691
-0.0565,-0.3785,-0.6955
-0.0555,-0.3765,-0.6995
-0.0565,-0.3765,-0.708
-0.054,-0.3755,-0.708
-0.0565,-0.3755,-0.7015
-0.0645,-0.3775,-0.692
-0.0665,-0.378,-0.675
-0.062,-0.3585,-0.656
-0.0505,-0.323,-0.6375
-0.0385,-0.289,-0.624
-0.024,-0.254,-0.6175
-0.003,-0.214,-0.608
0.0085,-0.168,-0.5965
0.029,-0.119,-0.585
0.0515,-0.071,-0.569
0.07,-0.019,-0.557
0.1025,0.0545,-0.5425
0.1495,0.1585,-0.528
0.1955,0.278,-0.5125
0.226,0.3945,-0.4705
0.2455,0.509,-0.4115
0.2705,0.6425,-0.347
0.3035,0.785,-0.2835
0.341,0.935,-0.2335
0.39,1.0945,-0.1935
0.428,1.2365,-0.1535
0.4555,1.366,-0.123
0.4825,1.4935,-0.089
0.5065,1.599,-0.04
0.533,1.6855,-0.0025
0.558,1.7495,0.026
0.572,1.776,0.039
0.574,1.773,0.047
0.568,1.7495,0.069
0.548,1.6985,0.098
0.519,1.6075,0.1195
0.4855,1.504,0.1385
0.444,1.3885,0.1645
0.394,1.254,0.1715
0.343,1.125,0.179
0.2885,0.992,0.195
0.2315,0.863,0.2015
0.1825,0.741,0.205
0.135,0.611,0.206
0.088,0.4825,0.2125
0.0395,0.3525,0.2185
-0.003,0.2355,0.211
-0.0355,0.131,0.2005
-0.055,0.047,0.1865
-0.048,0.0055,0.1495
-0.045,-0.03,0.112
-0.0555,-0.072,0.0835
-0.063,-0.112,0.042
-0.0715,-0.153,-0.004
-0.0775,-0.194,-0.0525
-0.079,-0.222,-0.096
-0.084,-0.2495,-0.1255
-0.092,-0.2845,-0.1395
-0.099,-0.3095,-0.1545
-0.0995,-0.326,-0.17
-0.098,-0.338,-0.186
-0.1,-0.346,-0.2115
-0.102,-0.3525,-0.235
-0.0985,-0.3585,-0.265
-0.087,-0.357,-0.295
-0.0815,-0.3645,-0.3285
-0.0845,-0.372,-0.3575
-0.086,-0.3685,-0.376
-0.0855,-0.3675,-0.3915
-0.0825,-0.3615,-0.402
-0.079,-0.353,-0.4175
-0.0795,-0.352,-0.4375
-0.082,-0.3535,-0.458
-0.0805,-0.348,-0.4725
-0.0745,-0.3355,-0.4805
-0.068,-0.328,-0.497
-0.0675,-0.328,-0.5095
-0.071,-0.327,-0.5185
-0.0735,-0.325,-0.529
-0.0755,-0.3225,-0.5365
-0.0745,-0.3235,-0.5415
-0.0735,-0.325,-0.5475
-0.0745,-0.3285,-0.5555
-0.0755,-0.332,-0.56
-0.0775,-0.3345,-0.563
-0.078,-0.3375,-0.566
-0.0765,-0.339,-0.5715
-0.0745,-0.341,-0.5745
-0.074,-0.342,-0.5775
-0.072,-0.341,-0.5775
-0.0705,-0.342,-0.578
-0.0705,-0.3425,-0.584
-0.071,-0.344,-0.587
-0.073,-0.344,-0.588
-0.074,-0.345,-0.5885
-0.0735,-0.346,-0.5885
-0.072,-0.3455,-0.5875
-0.071,-0.3475,-0.589
-0.0735,-0.348,-0.593
-0.0755,-0.3475,-0.595
-0.075,-0.3485,-0.597
-0.0745,-0.3465,-0.597
-0.073,-0.346,-0.5975
-0.071,-0.3485,-0.6025
-0.0725,-0.35,-0.6025
-0.0745,-0.3495,-0.6075
-0.074,-0.348,-0.613
-0.072,-0.3475,-0.609
-0.071,-0.3475,-0.605
-0.07,-0.3465,-0.606
-0.068,-0.3465,-0.609
-0.0665,-0.3465,-0.611
-0.069,-0.3475,-0.6105
-0.073,-0.348,-0.6075
-0.073,-0.347,-0.608
-0.07,-0.3465,-0.6095
-0.0705,-0.347,-0.61
-0.0715,-0.346,-0.608
-0.071,-0.347,-0.6055
-0.071,-0.347,-0.6025
-0.0685,-0.346,-0.6025
-0.067,-0.3455,-0.5995
-0.0675,-0.344,-0.6035
-0.0685,-0.3465,-0.6125
-0.0695,-0.3465,-0.6145
-0.071,-0.3445,-0.612
-0.071,-0.344,-0.611
-0.072,-0.3435,-0.6095
-0.0735,-0.3435,-0.6085
-0.072,-0.3425,-0.6125
-0.072,-0.342,-0.608
-0.071,-0.342,-0.608
-0.07,-0.342,-0.608
-0.071,-0.3405,-0.603
-0.072,-0.34,-0.602
-0.073,-0.3405,-0.603
-0.0745,-0.3395,-0.6035
-0.07,-0.339,-0.602
-0.0675,-0.3365,-0.6055
-0.0705,-0.336,-0.605
-0.0715,-0.3375,-0.599
-0.072,-0.338,-0.5975
-0.069,-0.3365,-0.597
-0.0685,-0.3355,-0.5935
-0.0695,-0.3355,-0.594
-0.0665,-0.335,-0.594
-0.0655,-0.3345,-0.593
-0.066,-0.3345,-0.596
-0.0655,-0.3335,-0.596
-0.066,-0.332,-0.5955
-0.0675,-0.333,-0.5945
-0.0645,-0.331,-0.593
-0.064,-0.331,-0.5895
-0.0665,-0.33,-0.5845
-0.063,-0.3285,-0.585
-0.0615,-0.3305,-0.5885
-0.0625,-0.3295,-0.587
-0.0605,-0.329,-0.582
-0.0595,-0.3285,-0.5815
-0.061,-0.3275,-0.5815
-0.0635,-0.3265,-0.578
-0.065,-0.327,-0.577
-0.07,-0.3275,-0.5825
-0.0715,-0.326,-0.591
-0.0675,-0.3265,-0.591
-0.066,-0.3265,-0.5885
-0.063,-0.327,-0.5865
-0.064,-0.325,-0.5855
-0.0635,-0.3245,-0.5855
-0.061,-0.3235,-0.5855
-0.061,-0.3225,-0.586
-0.059,-0.3235,-0.588
-0.059,-0.322,-0.586
-0.062,-0.3225,-0.582
-0.061,-0.322,-0.5795
-0.06,-0.3205,-0.577
-0.0585,-0.3195,-0.5755
-0.0565,-0.3165,-0.575
-0.057,-0.314,-0.5735
-0.058,-0.3165,-0.5715
-0.058,-0.3195,-0.5755
-0.0575,-0.3155,-0.574
-0.055,-0.313,-0.5685
-0.054,-0.3135,-0.571
-0.058,-0.313,-0.572
-0.0575,-0.3105,-0.574
-0.0575,-0.3075,-0.5745
-0.0555,-0.3085,-0.571
-0.054,-0.3075,-0.5665
-0.056,-0.305,-0.566
-0.0545,-0.305,-0.5685
-0.052,-0.3015,-0.569
-0.0525,-0.3015,-0.572
-0.054,-0.3015,-0.5715
-0.0525,-0.3005,-0.5665
-0.052,-0.3,-0.5645
-0.0515,-0.297,-0.563
-0.0495,-0.297,-0.562
-0.049,-0.2945,-0.5605
-0.048,-0.2915,-0.555
-0.0465,-0.291,-0.5515
-0.0495,-0.2885,-0.552
-0.0505,-0.2865,-0.557
-0.0495,-0.2885,-0.5605
-0.046,-0.2865,-0.557
-0.0435,-0.2835,-0.5545
-0.042,-0.2825,-0.5505
-0.0415,-0.2815,-0.5495
-0.0415,-0.2805,-0.5475
-0.04,-0.2795,-0.548
-0.0375,-0.277,-0.5515
-0.036,-0.276,-0.5475
-0.0375,-0.2745,-0.544
-0.037,-0.2715,-0.542
-0.0365,-0.2705,-0.543
-0.037,-0.2675,-0.543
-0.036,-0.267,-0.5395
-0.0355,-0.265,-0.539
-0.037,-0.2605,-0.535
-0.0365,-0.2575,-0.531
-0.038,-0.255,-0.5295
-0.0385,-0.254,-0.5295
-0.036,-0.2535,-0.531
-0.036,-0.251,-0.5325
-0.034,-0.2465,-0.5295
-0.032,-0.245,-0.528
-0.0275,-0.2425,-0.5265
-0.025,-0.2395,-0.5225
-0.0265,-0.237,-0.5215
-0.0245,-0.2355,-0.52
-0.021,-0.232,-0.52
-0.02,-0.228,-0.5145
-0.0215,-0.2255,-0.5105
-0.025,-0.223,-0.505
-0.026,-0.2205,-0.5005
-0.022,-0.217,-0.5045
-0.0225,-0.214,-0.5055
-0.023,-0.211,-0.504
-0.017,-0.2055,-0.498
-0.0145,-0.202,-0.497
-0.0125,-0.198,-0.4985
-0.0075,-0.194,-0.492
-0.008,-0.1925,-0.4925
-0.0065,-0.19,-0.491
-0.0055,-0.185,-0.4825
-0.0045,-0.18,-0.4865
0.0,-0.1775,-0.486
0.002,-0.173,-0.4785
0.0045,-0.1675,-0.4745
0.0025,-0.1645,-0.4715
0.0005,-0.16,-0.4665
0.003,-0.1555,-0.4635
0.0025,-0.1535,-0.461
-0.001,-0.1505,-0.4595
0.002,-0.146,-0.4575
0.007,-0.1405,-0.454
0.0075,-0.138,-0.451
0.009,-0.135,-0.444
0.01,-0.129,-0.44
0.01,-0.1245,-0.435
0.011,-0.1205,-0.4315
0.0125,-0.115,-0.4295
0.0165,-0.1095,-0.4255
0.0205,-0.1055,-0.423
0.022,-0.103,-0.4225
0.0215,-0.1,-0.4215
0.022,-0.094,-0.418
0.0225,-0.0885,-0.4135
0.0275,-0.084,-0.412
0.031,-0.0805,-0.4135
0.033,-0.076,-0.4115
0.0365,-0.071,-0.405
0.0385,-0.0635,-0.3935
0.0415,-0.058,-0.3895
0.0405,-0.057,-0.3915
0.039,-0.0535,-0.3895
0.039,-0.05,-0.3865
0.038,-0.046,-0.3845
0.0345,-0.0425,-0.381
0.0375,-0.038,-0.377
0.037,-0.0355,-0.3705
0.038,-0.0315,-0.3655
0.0435,-0.027,-0.3665
0.043,-0.026,-0.3635
0.047,-0.0225,-0.3575
0.0485,-0.02,-0.355
0.049,-0.017,-0.3535
0.047,-0.0135,-0.3505
0.0455,-0.011,-0.3495
0.048,-0.008,-0.347
0.0475,-0.005,-0.3455
0.048,-0.0025,-0.3445
0.048,0.0,-0.3395
0.0465,0.004,-0.3355
0.045,0.0055,-0.3305
0.0455,0.0075,-0.329
0.0455,0.0095,-0.331
0.045,0.009,-0.333
0.048,0.012,-0.3335
0.052,0.0155,-0.3275
0.05,0.015,-0.3215
0.0485,0.0175,-0.317
0.049,0.02,-0.3135
0.048,0.0185,-0.3165
0.0495,0.0185,-0.319
0.052,0.021,-0.3155
0.0515,0.0215,-0.3145
0.051,0.021,-0.319
0.053,0.0205,-0.3185
0.053,0.02,-0.3205
0.0545,0.0195,-0.3245
0.054,0.018,-0.3235
0.0485,0.015,-0.321
0.045,0.0115,-0.319
0.04,0.01,-0.3225
0.038,0.008,-0.327
0.038,0.003,-0.329
0.037,-0.0025,-0.334
0.036,-0.0065,-0.3405
0.033,-0.01,-0.3425
0.031,-0.0155,-0.3435
0.028,-0.023,-0.35
0.026,-0.03,-0.358
0.027,-0.035,-0.364
0.0275,-0.0415,-0.3675
0.022,-0.0495,-0.372
0.0185,-0.055,-0.3785
0.018,-0.0605,-0.3845
0.0155,-0.0685,-0.391
0.014,-0.075,-0.3965
0.011,-0.082,-0.402
0.0085,-0.0875,-0.4085
0.0055,-0.0955,-0.4125
0.001,-0.103,-0.4145
0.0005,-0.109,-0.4175
-0.0025,-0.1175,-0.4255
-0.006,-0.125,-0.4355
-0.006,-0.131,-0.442
-0.0085,-0.137,-0.447
-0.013,-0.146,-0.448
-0.0155,-0.1525,-0.4495
-0.016,-0.158,-0.453
-0.0165,-0.1635,-0.457
-0.0165,-0.169,-0.464
-0.017,-0.1755,-0.469
-0.0155,-0.18,-0.4705
-0.022,-0.187,-0.4765
-0.0295,-0.191,-0.48
-0.0295,-0.1965,-0.4825
-0.033,-0.2045,-0.4905
-0.033,-0.209,-0.4915
-0.0345,-0.213,-0.4935
-0.037,-0.2165,-0.495
-0.0395,-0.2205,-0.499
-0.044,-0.226,-0.505
-0.045,-0.2325,-0.508
-0.047,-0.235,-0.5095
-0.047,-0.238,-0.5075
-0.051,-0.2425,-0.512
-0.0525,-0.247,-0.516
-0.054,-0.2515,-0.5165
-0.058,-0.2545,-0.523
-0.0555,-0.258,-0.5255
-0.0545,-0.26,-0.529
-0.0535,-0.2615,-0.535
-0.056,-0.2625,-0.5345
-0.057,-0.2655,-0.5395
-0.058,-0.2685,-0.5385
-0.0605,-0.2705,-0.537
-0.0615,-0.2735,-0.541
-0.0635,-0.2765,-0.54
-0.0615,-0.281,-0.542
-0.0615,-0.282,-0.5415
-0.0605,-0.282,-0.5345
-0.061,-0.284,-0.532
-0.06,-0.2845,-0.535
-0.062,-0.2865,-0.538
-0.0675,-0.289,-0.5395
-0.0615,-0.29,-0.5405
-0.0635,-0.289,-0.54
-0.0675,-0.2885,-0.537
-0.067,-0.29,-0.5375
-0.0675,-0.293,-0.539
-0.067,-0.2935,-0.545
-0.0665,-0.2935,-0.5475
-0.068,-0.2935,-0.5465
-0.068,-0.2885,-0.546
-0.0675,-0.2895,-0.5485
-0.0705,-0.2955,-0.554
-0.0675,-0.2965,-0.552
-0.0635,-0.293,-0.5535
-0.066,-0.293,-0.556
-0.0695,-0.294,-0.5555
-0.0685,-0.296,-0.5525
-0.068,-0.296,-0.5495
-0.0665,-0.293,-0.5505
-0.066,-0.2945,-0.551
-0.066,-0.2965,-0.5485
-0.0645,-0.297,-0.55
-0.0705,-0.295,-0.5525
-0.071,-0.2955,-0.552
-0.07,-0.295,-0.55
-0.0675,-0.2955,-0.548
-0.066,-0.2965,-0.552
-0.0705,-0.2935,-0.557
-0.074,-0.2965,-0.558
-0.0745,-0.2965,-0.5565
-0.0725,-0.297,-0.556
-0.0685,-0.2975,-0.5535
-0.066,-0.295,-0.549
-0.0665,-0.2975,-0.553
-0.0685,-0.2985,-0.5555
-0.0705,-0.299,-0.554
-0.0705,-0.299,-0.5535
-0.0735,-0.3,-0.5505
-0.0745,-0.3005,-0.55
-0.071,-0.3,-0.5495
-0.0705,-0.3015,-0.5475
-0.07,-0.3005,-0.546
-0.0685,-0.3005,-0.547
-0.066,-0.302,-0.546
-0.0655,-0.303,-0.5495
-0.0685,-0.303,-0.555
-0.0675,-0.303,-0.5525
-0.0675,-0.3045,-0.5525
-0.0635,-0.3035,-0.553
-0.061,-0.3035,-0.553
-0.0645,-0.305,-0.554
-0.069,-0.3065,-0.5565
-0.066,-0.3065,-0.556
-0.061,-0.3075,-0.555
-0.064,-0.3085,-0.5555
-0.067,-0.309,-0.556
-0.0685,-0.3085,-0.558
-0.0705,-0.3055,-0.5535
-0.071,-0.3075,-0.5525
-0.0685,-0.3085,-0.554
-0.0695,-0.309,-0.555
-0.073,-0.3105,-0.556
-0.0695,-0.3095,-0.5535
-0.064,-0.3095,-0.5515
-0.0635,-0.308,-0.549
-0.06,-0.307,-0.549
-0.0565,-0.308,-0.552
-0.056,-0.3085,-0.5525
-0.0545,-0.309,-0.5545
-0.0555,-0.309,-0.557
-0.054,-0.3105,-0.5575
-0.0545,-0.311,-0.558
-0.0575,-0.3105,-0.5615
-0.0545,-0.311,-0.563
-0.055,-0.3105,-0.559
-0.0565,-0.3115,-0.5585
-0.058,-0.3115,-0.556
-0.062,-0.311,-0.555
-0.056,-0.311,-0.558
-0.0555,-0.311,-0.561
-0.0585,-0.311,-0.5575
-0.057,-0.3115,-0.5535
-0.061,-0.3115,-0.552
-0.064,-0.3115,-0.545
-0.062,-0.3125,-0.5495
-0.061,-0.3125,-0.5555
-0.0605,-0.314,-0.554
-0.061,-0.314,-0.558
-0.0605,-0.3135,-0.556
-0.058,-0.3135,-0.5545
-0.059,-0.3115,-0.557
-0.0565,-0.3135,-0.5555
-0.053,-0.3115,-0.559
-0.054,-0.3105,-0.56
-0.0545,-0.3125,-0.5605
-0.0515,-0.31,-0.557
-0.0535,-0.3105,-0.557
-0.0575,-0.313,-0.5605
-0.0585,-0.313,-0.5605
-0.063,-0.314,-0.563
-0.0625,-0.3135,-0.5595
-0.0565,-0.313,-0.5615
-0.053,-0.3135,-0.5585
-0.051,-0.312,-0.554
-0.05,-0.313,-0.5605
-0.0525,-0.313,-0.5635
-0.051,-0.3135,-0.567
-0.0505,-0.3155,-0.5685
-0.0545,-0.313,-0.568
-0.054,-0.3135,-0.57
-0.0525,-0.313,-0.575
-0.0515,-0.3125,-0.575
-0.0515,-0.3135,-0.5705
-0.05,-0.315,-0.569
-0.0515,-0.314,-0.568
-0.054,-0.314,-0.5645
-0.052,-0.315,-0.56
-0.0515,-0.3145,-0.5635
-0.0505,-0.314,-0.566
-0.049,-0.3145,-0.564
-0.05,-0.3155,-0.564
-0.0515,-0.3145,-0.568
-0.0505,-0.314,-0.567
-0.054,-0.315,-0.5605
-0.056,-0.3145,-0.562
-0.051,-0.3135,-0.566
-0.05,-0.317,-0.5705
-0.0505,-0.3175,-0.5745
-0.0495,-0.317,-0.578
-0.05,-0.3185,-0.5785
-0.054,-0.3195,-0.5775
-0.0535,-0.319,-0.577
-0.05,-0.317,-0.5755
-0.0455,-0.3135,-0.576
-0.0465,-0.315,-0.5815
-0.0565,-0.32,-0.5825
-0.0605,-0.3195,-0.577
-0.0565,-0.319,-0.574
-0.057,-0.3175,-0.574
-0.0575,-0.3165,-0.5775
-0.0555,-0.3175,-0.578
-0.0575,-0.3165,-0.578
-0.0525,-0.316,-0.577
-0.0515,-0.3165,-0.577
-0.053,-0.318,-0.579
-0.0515,-0.3185,-0.582
-0.0545,-0.319,-0.586
-0.0545,-0.319,-0.5835
-0.0515,-0.3165,-0.581
-0.05,-0.3165,-0.5805
-0.0515,-0.318,-0.582
-0.052,-0.3185,-0.586
-0.054,-0.3215,-0.591
-0.054,-0.3225,-0.5945
-0.051,-0.3225,-0.5965
-0.051,-0.322,-0.594
-0.053,-0.3215,-0.5915
-0.055,-0.324,-0.592
-0.0545,-0.325,-0.591
-0.055,-0.3255,-0.59
-0.053,-0.326,-0.59
-0.053,-0.3255,-0.5885
-0.0555,-0.324,-0.586
-0.056,-0.3255,-0.588
-0.053,-0.3255,-0.591
-0.0525,-0.3245,-0.594
-0.057,-0.3265,-0.598
-0.053,-0.326,-0.598
-0.0545,-0.3255,-0.5995
-0.0555,-0.325,-0.5995
-0.054,-0.324,-0.596
-0.053,-0.324,-0.5965
-0.05,-0.326,-0.599
-0.0535,-0.3275,-0.6025
-0.0545,-0.3285,-0.6045
-0.053,-0.3295,-0.6005
-0.054,-0.3295,-0.5975
-0.054,-0.3295,-0.594
-0.052,-0.328,-0.5925
-0.0515,-0.329,-0.5935
-0.056,-0.3305,-0.592
-0.0555,-0.3305,-0.592
-0.053,-0.33,-0.591
-0.0555,-0.329,-0.5915
-0.0575,-0.33,-0.5895
-0.0595,-0.331,-0.5875
-0.061,-0.3345,-0.5925
-0.062,-0.336,-0.5975
-0.061,-0.3355,-0.6
-0.0575,-0.3375,-0.598
-0.0575,-0.3365,-0.5975
-0.057,-0.338,-0.599
-0.0575,-0.339,-0.6005
-0.06,-0.3385,-0.601
-0.0615,-0.34,-0.6
-0.0625,-0.341,-0.597
-0.064,-0.34,-0.5995
-0.067,-0.339,-0.6025
-0.0655,-0.3395,-0.601
-0.0615,-0.339,-0.5975
-0.063,-0.338,-0.5925
-0.0635,-0.3385,-0.595
-0.0655,-0.339,-0.598
-0.07,-0.3405,-0.601
-0.0705,-0.3405,-0.602
-0.0715,-0.3405,-0.605
-0.0685,-0.3415,-0.6125
-0.0625,-0.3405,-0.611
-0.064,-0.341,-0.607
-0.0645,-0.3395,-0.6015
-0.07,-0.341,-0.603
-0.0725,-0.342,-0.6085
-0.0635,-0.34,-0.6075
-0.061,-0.3415,-0.607
-0.059,-0.342,-0.6045
-0.059,-0.3425,-0.6015
-0.0635,-0.3455,-0.601
-0.064,-0.3455,-0.602
-0.067,-0.345,-0.6
-0.066,-0.346,-0.6005
-0.065,-0.346,-0.6055
-0.0675,-0.3475,-0.6045
-0.068,-0.3475,-0.6065
-0.068,-0.348,-0.6085
-0.07,-0.3485,-0.611
-0.0705,-0.348,-0.6185
-0.063,-0.3475,-0.614
-0.0565,-0.345,-0.6075
-0.06,-0.346,-0.6095
-0.065,-0.347,-0.6135
-0.066,-0.3475,-0.62
-0.0675,-0.3495,-0.6175
-0.0675,-0.3495,-0.613
-0.067,-0.35,-0.6105
-0.0655,-0.3495,-0.607
-0.066,-0.35,-0.6135
-0.0675,-0.3505,-0.614
-0.068,-0.35,-0.6105
-0.066,-0.3495,-0.6075
-0.0635,-0.3505,-0.6065
-0.067,-0.352,-0.606
-0.0675,-0.3495,-0.605
-0.0705,-0.35,-0.6095
-0.072,-0.351,-0.608
-0.0655,-0.349,-0.605
-0.0635,-0.3505,-0.6045
-0.0645,-0.3505,-0.6095
-0.065,-0.3495,-0.612
-0.067,-0.3505,-0.6105
-0.065,-0.349,-0.6145
-0.0635,-0.349,-0.617
-0.0685,-0.352,-0.6165
-0.0695,-0.3525,-0.6195
-0.0705,-0.355,-0.62
-0.067,-0.3545,-0.619
-0.066,-0.3525,-0.619
-0.067,-0.3525,-0.612
-0.064,-0.3535,-0.607
-0.0695,-0.354,-0.606
-0.0685,-0.3505,-0.6065
-0.0675,-0.352,-0.609
-0.0675,-0.3575,-0.6105
-0.067,-0.3585,-0.609
-0.0705,-0.3565,-0.606
-0.0695,-0.355,-0.603
-0.0675,-0.355,-0.6055
-0.063,-0.356,-0.6085
-0.0635,-0.3575,-0.6105
-0.0635,-0.3565,-0.615
-0.065,-0.3575,-0.613
-0.0685,-0.3575,-0.6155
-0.0645,-0.356,-0.6185
-0.0675,-0.3585,-0.6135
-0.07,-0.3585,-0.614
-0.0665,-0.3565,-0.6155
-0.0635,-0.3565,-0.6105
-0.0665,-0.3575,-0.606
-0.0665,-0.3565,-0.6035
-0.064,-0.3555,-0.606
-0.0635,-0.3565,-0.6085
-0.062,-0.3585,-0.6135
-0.066,-0.359,-0.6185
-0.0675,-0.3595,-0.6165
-0.069,-0.36,-0.6115
-0.07,-0.36,-0.61
-0.068,-0.3605,-0.6155
-0.068,-0.361,-0.6185
-0.0655,-0.362,-0.62
-0.068,-0.3625,-0.6225
-0.069,-0.361,-0.621
-0.0655,-0.3595,-0.6235
-0.0655,-0.36,-0.624
-0.063,-0.3605,-0.6235
-0.0635,-0.362,-0.625
-0.064,-0.3625,-0.6255
-0.0645,-0.3635,-0.6245
-0.067,-0.3635,-0.623
-0.0695,-0.364,-0.6175
-0.0715,-0.3615,-0.6145
-0.074,-0.3625,-0.617
-0.071,-0.3655,-0.6175
-0.0675,-0.3625,-0.6165
-0.073,-0.364,-0.614
-0.0765,-0.3655,-0.613
-0.0725,-0.3615,-0.612
-0.071,-0.362,-0.6085
-0.0695,-0.364,-0.6045
-0.064,-0.362,-0.61
-0.0635,-0.3625,-0.616
-0.058,-0.3605,-0.6125
-0.06,-0.359,-0.615
-0.067,-0.3605,-0.618
-0.068,-0.363,-0.621
-0.0705,-0.367,-0.6235
-0.069,-0.368,-0.6235
-0.073,-0.365,-0.6205
-0.074,-0.362,-0.611
-0.068,-0.361,-0.61
-0.064,-0.3605,-0.613
-0.0635,-0.361,-0.6145
-0.065,-0.3635,-0.617
-0.0665,-0.3635,-0.615
-0.069,-0.3635,-0.614
-0.0705,-0.3625,-0.6155
-0.071,-0.362,-0.6165
-0.071,-0.362,-0.6145
-0.071,-0.3605,-0.613
-0.073,-0.3615,-0.6155
-0.0715,-0.362,-0.6155
-0.0705,-0.362,-0.618
-0.0705,-0.363,-0.6225
-0.0725,-0.364,-0.6245
-0.0705,-0.365,-0.6285
-0.064,-0.3635,-0.631
-0.061,-0.363,-0.6305
-0.06,-0.3615,-0.628
-0.0635,-0.362,-0.625
-0.066,-0.364,-0.6275
-0.065,-0.3645,-0.628
-0.0675,-0.3665,-0.6235
-0.0695,-0.3665,-0.6245
-0.07,-0.3665,-0.6255
-0.0685,-0.3665,-0.624
-0.067,-0.3675,-0.6265
-0.069,-0.3685,-0.625
-0.07,-0.3695,-0.6255
-0.0705,-0.3715,-0.6225
-0.0675,-0.3705,-0.6185
-0.063,-0.369,-0.618
-0.065,-0.371,-0.619
-0.069,-0.373,-0.624
-0.0735,-0.3725,-0.6235
-0.074,-0.3715,-0.6265
-0.074,-0.373,-0.6275
-0.073,-0.374,-0.6265
-0.0755,-0.371,-0.626
-0.0795,-0.3715,-0.6215
-0.078,-0.3705,-0.62
-0.0775,-0.3685,-0.619
-0.075,-0.371,-0.619
-0.0775,-0.3705,-0.619
-0.0785,-0.3685,-0.623
-0.077,-0.3685,-0.625
-0.0785,-0.3685,-0.6185
-0.076,-0.369,-0.6185
-0.0735,-0.3675,-0.619
-0.0725,-0.367,-0.62
-0.0695,-0.3675,-0.6255
-0.0665,-0.3675,-0.626
-0.065,-0.365,-0.6275
-0.071,-0.364,-0.632
-0.071,-0.3645,-0.63
-0.0715,-0.3675,-0.6305
-0.0685,-0.369,-0.6295
-0.0635,-0.3665,-0.6235
-0.066,-0.366,-0.623
-0.066,-0.365,-0.621
-0.0685,-0.3655,-0.6185
-0.0685,-0.3665,-0.6165
-0.064,-0.3655,-0.614
-0.061,-0.365,-0.612
-0.06,-0.365,-0.614
-0.063,-0.3645,-0.617
-0.0705,-0.3655,-0.609
-0.0695,-0.364,-0.604
-0.066,-0.362,-0.6055
-0.068,-0.3635,-0.61
-0.067,-0.3605,-0.608
-0.069,-0.3605,-0.602
-0.067,-0.3635,-0.598
-0.0565,-0.359,-0.594
-0.055,-0.3565,-0.593
-0.0595,-0.3585,-0.591
-0.0605,-0.3585,-0.592
-0.063,-0.3605,-0.593
-0.0645,-0.3595,-0.584
-0.066,-0.3565,-0.5745
-0.065,-0.357,-0.5675
-0.0615,-0.3565,-0.5665
-0.061,-0.3585,-0.5655
-0.0615,-0.359,-0.562
-0.0625,-0.3565,-0.5625
-0.066,-0.3565,-0.5625
-0.069,-0.356,-0.5655
-0.0705,-0.3575,-0.5645
-0.0715,-0.356,-0.5615
-0.07,-0.355,-0.566
-0.071,-0.3555,-0.5675
-0.072,-0.354,-0.5665
-0.0665,-0.3525,-0.566
-0.0635,-0.3515,-0.5675
-0.0655,-0.349,-0.567
-0.068,-0.351,-0.566
-0.067,-0.353,-0.5705
-0.0685,-0.353,-0.573
-0.069,-0.3525,-0.5635
-0.0685,-0.347,-0.549
-0.0675,-0.345,-0.5385
-0.064,-0.3465,-0.53
-0.0695,-0.3485,-0.519
-0.072,-0.35,-0.5105
-0.07,-0.3495,-0.507
-0.072,-0.3485,-0.4985
-0.0715,-0.3455,-0.4915
-0.0685,-0.3435,-0.4815
-0.064,-0.3455,-0.476
-0.059,-0.3435,-0.474
-0.0545,-0.342,-0.4755
-0.054,-0.3425,-0.4795
-0.0545,-0.341,-0.4815
-0.0535,-0.34,-0.488
-0.055,-0.339,-0.4945
-0.0515,-0.3375,-0.505
-0.045,-0.336,-0.504
-0.0435,-0.3355,-0.504
-0.0435,-0.334,-0.512
-0.045,-0.3335,-0.5135
-0.046,-0.338,-0.5175
-0.045,-0.3395,-0.5185
-0.0435,-0.3385,-0.5185
-0.0405,-0.3375,-0.522
-0.0325,-0.336,-0.5215
-0.029,-0.332,-0.516
-0.03,-0.329,-0.5215
-0.0325,-0.33,-0.533
-0.0355,-0.329,-0.539
-0.0315,-0.3265,-0.5405
-0.0255,-0.3245,-0.548
-0.0255,-0.324,-0.5515
-0.028,-0.3205,-0.5495
-0.0255,-0.317,-0.5565
-0.021,-0.313,-0.5575
-0.015,-0.308,-0.559
-0.0115,-0.3055,-0.565
-0.0095,-0.305,-0.5745
-0.0115,-0.305,-0.5765
-0.0165,-0.3045,-0.5705
-0.018,-0.304,-0.576
-0.021,-0.302,-0.58
-0.0225,-0.303,-0.581
-0.0195,-0.302,-0.573
-0.022,-0.3,-0.577
-0.0235,-0.2995,-0.586
-0.024,-0.298,-0.5755
-0.027,-0.299,-0.57
-0.0245,-0.301,-0.569
-0.023,-0.302,-0.567
-0.0265,-0.3005,-0.5645
-0.0315,-0.303,-0.5725
-0.033,-0.308,-0.5815
-0.038,-0.3095,-0.581
-0.0405,-0.3135,-0.5825
-0.04,-0.3175,-0.589
-0.0415,-0.3195,-0.598
-0.047,-0.324,-0.607
-0.055,-0.3285,-0.6095
-0.057,-0.3315,-0.6105
-0.058,-0.334,-0.614
-0.0615,-0.338,-0.611
-0.0645,-0.3405,-0.6075
-0.0675,-0.3445,-0.6065
-0.0745,-0.349,-0.611
-0.0765,-0.35,-0.6095
-0.077,-0.3505,-0.608
-0.0775,-0.3525,-0.6155
-0.0805,-0.3585,-0.6185
-0.0845,-0.363,-0.6295
-0.0815,-0.364,-0.634
-0.0805,-0.3655,-0.6395
-0.078,-0.3665,-0.6525
-0.0795,-0.3675,-0.647
-0.0855,-0.3695,-0.643
-0.088,-0.378,-0.6475
-0.0945,-0.3835,-0.6575
-0.096,-0.3825,-0.661
-0.0915,-0.3825,-0.659
-0.0965,-0.3855,-0.6535
-0.0975,-0.3855,-0.651
-0.099,-0.3865,-0.6655
-0.099,-0.39,-0.6685
-0.093,-0.3935,-0.666
-0.094,-0.396,-0.6705
-0.0945,-0.3965,-0.667
-0.0965,-0.396,-0.6585
-0.0945,-0.395,-0.6545
-0.0915,-0.3955,-0.6535
-0.094,-0.397,-0.656
-0.095,-0.396,-0.6585
-0.091,-0.3915,-0.657
-0.088,-0.3915,-0.6595
-0.0905,-0.391,-0.6605
-0.091,-0.3885,-0.6645
-0.0905,-0.3915,-0.6645
-0.0895,-0.39,-0.6635
-0.0915,-0.389,-0.6665
-0.0955,-0.3915,-0.667
-0.0955,-0.3895,-0.6695
-0.09,-0.3875,-0.67
-0.088,-0.386,-0.669
-0.094,-0.3855,-0.6705
-0.095,-0.3875,-0.6715
-0.093,-0.3865,-0.6665
-0.089,-0.385,-0.6645
-0.0895,-0.3865,-0.6625
-0.0935,-0.388,-0.663
-0.0975,-0.391,-0.668
-0.0985,-0.392,-0.67
-0.0925,-0.39,-0.67
-0.0965,-0.393,-0.6735
-0.099,-0.3955,-0.678
-0.098,-0.3975,-0.684
-0.099,-0.401,-0.689
-0.0975,-0.3995,-0.6885
-0.097,-0.402,-0.7025
-0.09,-0.404,-0.7165
-0.084,-0.4,-0.7185
-0.083,-0.3925,-0.7185
-0.081,-0.3865,-0.7185
-0.0715,-0.38,-0.72
-0.0695,-0.376,-0.722
-0.076,-0.375,-0.7165
-0.081,-0.3765,-0.701
-0.0905,-0.381,-0.691
-0.087,-0.365,-0.6755
-0.08,-0.332,-0.657
-0.074,-0.2955,-0.6475
-0.0545,-0.257,-0.641
-0.0375,-0.2175,-0.634
-0.0195,-0.17,-0.617
0.0025,-0.1215,-0.6045
0.0235,-0.0745,-0.595
0.041,-0.027,-0.5785
0.071,0.039,-0.572
0.1155,0.14,-0.5615
0.164,0.26,-0.542
0.2025,0.381,-0.506
0.221,0.499,-0.444
0.2485,0.637,-0.376
0.281,0.7885,-0.309
0.322,0.9435,-0.255
0.376,1.109,-0.2225
0.418,1.2675,-0.182
0.45,1.402,-0.1445
0.4745,1.5295,-0.111
0.501,1.6465,-0.0655
0.523,1.733,-0.026
0.538,1.799,-0.0025
0.548,1.829,0.008
0.551,1.8225,0.0205
0.55,1.796,0.038
0.529,1.7405,0.0615
0.5035,1.6505,0.081
0.473,1.5365,0.1055
0.427,1.4055,0.14
0.378,1.2655,0.155
0.3285,1.134,0.165
0.264,0.9905,0.18
0.202,0.847,0.195
0.1575,0.7285,0.2
0.108,0.5985,0.205
0.0595,0.4665,0.2065
0.0125,0.3335,0.208
-0.0315,0.206,0.2065
-0.067,0.0965,0.197
-0.0875,0.008,0.178
-0.0765,-0.0335,0.1375
-0.0745,-0.0675,0.105
-0.0885,-0.108,0.076
-0.0965,-0.1455,0.0425
-0.1025,-0.1885,-0.0085
-0.1035,-0.229,-0.072
-0.1055,-0.259,-0.103
-0.1125,-0.2915,-0.123
-0.12,-0.3265,-0.1445
-0.125,-0.354,-0.1555
-0.1235,-0.377,-0.174
-0.1225,-0.388,-0.2
-0.1215,-0.391,-0.229
-0.1265,-0.394,-0.2565
-0.1255,-0.3995,-0.282
-0.114,-0.3975,-0.313
-0.1115,-0.4015,-0.3485
-0.109,-0.405,-0.3785
-0.1095,-0.4025,-0.398
-0.1115,-0.4025,-0.412
-0.107,-0.394,-0.4195
-0.101,-0.385,-0.4335
-0.0985,-0.3865,-0.4595
-0.096,-0.3865,-0.4775
-0.094,-0.3775,-0.493
-0.093,-0.373,-0.51
-0.087,-0.365,-0.5215
-0.083,-0.3545,-0.53
-0.0755,-0.3485,-0.535
-0.074,-0.3465,-0.5445
-0.074,-0.346,-0.555
-0.072,-0.344,-0.5605
-0.0765,-0.3435,-0.5695
-0.078,-0.344,-0.577
-0.081,-0.3485,-0.5795
-0.079,-0.352,-0.5765
-0.079,-0.354,-0.5805
-0.08,-0.356,-0.5885
-0.0775,-0.355,-0.5875
-0.0785,-0.3555,-0.5915
-0.0765,-0.354,-0.599
-0.0775,-0.3545,-0.604
-0.0755,-0.354,-0.608
-0.07,-0.352,-0.612
-0.0715,-0.353,-0.616
-0.076,-0.3545,-0.62
-0.077,-0.357,-0.6175
-0.071,-0.358,-0.6175
-0.075,-0.36,-0.6205
-0.076,-0.3615,-0.6235
-0.0725,-0.3615,-0.625
-0.074,-0.3625,-0.621
-0.0735,-0.3615,-0.6235
-0.0745,-0.3635,-0.625
-0.072,-0.362,-0.627
-0.0705,-0.3615,-0.631
-0.073,-0.362,-0.632
-0.076,-0.361,-0.632
-0.077,-0.3635,-0.631
-0.0835,-0.364,-0.6335
-0.077,-0.3585,-0.6325
-0.069,-0.3565,-0.6405
-0.0755,-0.362,-0.6465
-0.076,-0.3615,-0.6395
-0.0765,-0.3605,-0.64
-0.0705,-0.358,-0.641
-0.0715,-0.3575,-0.6385
-0.073,-0.359,-0.638
-0.067,-0.3565,-0.639
-0.067,-0.358,-0.643
-0.0685,-0.358,-0.6455
-0.0735,-0.3565,-0.64
-0.076,-0.358,-0.6395
-0.076,-0.357,-0.642
-0.078,-0.356,-0.64
-0.078,-0.3605,-0.6385
-0.076,-0.3635,-0.6395
-0.0745,-0.36,-0.642
-0.0735,-0.357,-0.6445
-0.074,-0.3565,-0.644
-0.0725,-0.3545,-0.639
-0.071,-0.3545,-0.64
-0.07,-0.3535,-0.642
-0.068,-0.353,-0.6405
-0.071,-0.352,-0.6405
-0.071,-0.35,-0.6415
-0.0685,-0.352,-0.6455
-0.069,-0.353,-0.6485
-0.0675,-0.3525,-0.6485
-0.067,-0.3515,-0.6495
-0.069,-0.3485,-0.6465
-0.074,-0.3485,-0.643
-0.0775,-0.347,-0.64
-0.079,-0.349,-0.634
-0.076,-0.35,-0.6365
-0.071,-0.3475,-0.639
-0.072,-0.348,-0.6365
-0.0755,-0.3495,-0.6325
-0.075,-0.3495,-0.63
-0.0775,-0.348,-0.6355
-0.078,-0.3475,-0.637
-0.074,-0.3495,-0.6385
-0.075,-0.351,-0.6405
-0.0735,-0.3515,-0.6345
-0.0705,-0.3505,-0.6345
-0.0705,-0.3495,-0.6385
-0.071,-0.3485,-0.6385
-0.072,-0.347,-0.636
-0.0725,-0.346,-0.6335
-0.068,-0.341,-0.629
-0.066,-0.3385,-0.6255
-0.0655,-0.3395,-0.6225
-0.063,-0.339,-0.623
-0.065,-0.3375,-0.624
-0.0625,-0.335,-0.6195
-0.0625,-0.336,-0.6195
-0.0655,-0.338,-0.621
-0.067,-0.3365,-0.6265
-0.0695,-0.336,-0.63
-0.0665,-0.3335,-0.6265
-0.0675,-0.3295,-0.629
-0.0685,-0.331,-0.6325
-0.0635,-0.33,-0.631
-0.062,-0.3295,-0.6295
-0.0635,-0.332,-0.6315
-0.0635,-0.331,-0.631
-0.0625,-0.33,-0.6285
-0.0635,-0.332,-0.6305
-0.0585,-0.331,-0.631
-0.0575,-0.3295,-0.6295
-0.0565,-0.328,-0.63
-0.06,-0.3275,-0.6285
-0.0635,-0.3265,-0.624
-0.056,-0.325,-0.6225
-0.0535,-0.325,-0.6225
-0.0505,-0.323,-0.6155
-0.0505,-0.3185,-0.612
-0.0525,-0.317,-0.6145
-0.054,-0.318,-0.608
-0.056,-0.316,-0.6045
-0.0525,-0.315,-0.6045
-0.0495,-0.3135,-0.599
-0.0555,-0.3145,-0.5985
-0.06,-0.314,-0.602
-0.054,-0.3095,-0.6065
-0.0525,-0.3065,-0.6075
-0.0515,-0.306,-0.608
-0.051,-0.305,-0.6055
-0.0495,-0.3025,-0.604
-0.0435,-0.3005,-0.6055
-0.0405,-0.2985,-0.6035
-0.039,-0.2955,-0.597
-0.04,-0.296,-0.5965
-0.0415,-0.2945,-0.6015
-0.0425,-0.2935,-0.602
-0.0485,-0.295,-0.6
-0.049,-0.2915,-0.596
-0.046,-0.2875,-0.595
-0.043,-0.2855,-0.5955
-0.043,-0.284,-0.5925
-0.041,-0.2805,-0.5895
-0.0385,-0.28,-0.594
-0.039,-0.2805,-0.601
-0.04,-0.2785,-0.6025
-0.0405,-0.2775,-0.602
-0.035,-0.274,-0.5965
-0.0325,-0.273,-0.595
-0.0325,-0.2725,-0.5935
-0.0295,-0.2675,-0.592
-0.0275,-0.262,-0.592
-0.03,-0.264,-0.5925
-0.035,-0.264,-0.5935
-0.036,-0.2595,-0.5885
-0.0295,-0.258,-0.5835
-0.0275,-0.258,-0.579
-0.0265,-0.255,-0.579
-0.028,-0.251,-0.5795
-0.0295,-0.2505,-0.5765
-0.027,-0.247,-0.574
-0.027,-0.2425,-0.574
-0.0285,-0.2405,-0.572
-0.0255,-0.2375,-0.5705
-0.018,-0.2295,-0.571
-0.0195,-0.2245,-0.5645
-0.021,-0.2205,-0.563
-0.0165,-0.2165,-0.563
-0.013,-0.213,-0.561
-0.0125,-0.2095,-0.559
-0.0095,-0.2095,-0.556
-0.0065,-0.207,-0.5575
-0.0035,-0.204,-0.5545
-0.0045,-0.199,-0.5485
-0.006,-0.195,-0.545
-0.002,-0.192,-0.5435
-0.0065,-0.187,-0.542
-0.0065,-0.184,-0.539
-0.0015,-0.1815,-0.5395
-0.0055,-0.1775,-0.54
-0.0065,-0.1735,-0.537
-0.001,-0.1695,-0.5315
0.0035,-0.165,-0.523
0.0025,-0.159,-0.518
0.0,-0.156,-0.5185
0.0055,-0.1515,-0.52
0.0115,-0.145,-0.5205
0.0085,-0.143,-0.5185
0.0075,-0.1395,-0.5115
0.014,-0.133,-0.5125
0.0175,-0.13,-0.518
0.0195,-0.1255,-0.514
0.022,-0.119,-0.5085
0.021,-0.115,-0.5015
0.024,-0.1125,-0.4955
0.0235,-0.109,-0.494
0.0215,-0.1045,-0.4915
0.0255,-0.099,-0.4845
0.022,-0.0935,-0.483
0.0195,-0.0895,-0.4835
0.025,-0.082,-0.4775
0.026,-0.0785,-0.4725
0.025,-0.0745,-0.47
0.0285,-0.068,-0.4705
0.0355,-0.064,-0.471
0.036,-0.0605,-0.4705
0.035,-0.0565,-0.463
0.0345,-0.0505,-0.46
0.0375,-0.0435,-0.458
0.042,-0.04,-0.4545
0.0395,-0.0385,-0.4525
0.0425,-0.0335,-0.4395
0.0435,-0.032,-0.429
0.041,-0.0295,-0.4305
0.047,-0.0215,-0.437
0.05,-0.0175,-0.4275
0.049,-0.0135,-0.42
0.0495,-0.0115,-0.423
0.0525,-0.0075,-0.4175
0.053,-0.0015,-0.4175
0.0505,-0.0005,-0.4175
0.0545,0.003,-0.41
0.0605,0.006,-0.4
0.0555,0.0065,-0.3985
0.057,0.009,-0.41
0.0565,0.01,-0.414
0.049,0.0085,-0.4065
0.0525,0.009,-0.3965
0.051,0.01,-0.3905
0.05,0.011,-0.392
0.0545,0.015,-0.3895
0.053,0.0135,-0.39
0.0535,0.0145,-0.392
0.058,0.02,-0.385
0.0605,0.0215,-0.379
0.0575,0.022,-0.3775
0.0565,0.0235,-0.3755
0.0595,0.025,-0.3775
0.056,0.025,-0.3795
0.0495,0.024,-0.379
0.0505,0.0245,-0.378
0.0505,0.027,-0.3775
0.051,0.0275,-0.378
0.0485,0.024,-0.3795
0.051,0.022,-0.3815
0.0535,0.0225,-0.3795
0.0435,0.0235,-0.385
0.0445,0.0235,-0.392
0.0445,0.017,-0.396
0.0415,0.01,-0.4005
0.0425,0.004,-0.4055
0.0465,0.0005,-0.405
0.0475,-0.0025,-0.406
0.042,-0.01,-0.4125
0.038,-0.018,-0.416
0.03,-0.026,-0.424
0.0295,-0.032,-0.4295
0.033,-0.036,-0.434
0.0315,-0.042,-0.439
0.03,-0.049,-0.44
0.028,-0.0565,-0.4415
0.0245,-0.065,-0.4435
0.022,-0.0695,-0.445
0.0195,-0.077,-0.451
0.0175,-0.088,-0.46
0.016,-0.096,-0.465
0.012,-0.1015,-0.4725
0.0115,-0.1055,-0.4765
0.0105,-0.114,-0.478
0.007,-0.123,-0.4805
0.008,-0.1305,-0.4845
0.005,-0.136,-0.4935
0.0005,-0.14,-0.498
0.0,-0.1455,-0.502
-0.005,-0.1535,-0.509
-0.0115,-0.1605,-0.512
-0.012,-0.164,-0.517
-0.0135,-0.17,-0.5225
-0.018,-0.1765,-0.526
-0.0195,-0.1805,-0.5325
-0.024,-0.1865,-0.534
-0.0285,-0.1935,-0.533
-0.0265,-0.1975,-0.5385
-0.023,-0.2035,-0.542
-0.0215,-0.2085,-0.5475
-0.03,-0.215,-0.5545
-0.0355,-0.2215,-0.553
-0.0395,-0.2235,-0.55
-0.0355,-0.2245,-0.556
-0.032,-0.2295,-0.5595
-0.0365,-0.236,-0.563
-0.0365,-0.2405,-0.569
-0.044,-0.246,-0.565
-0.0495,-0.2505,-0.569
-0.0455,-0.2515,-0.571
-0.044,-0.254,-0.5745
-0.0475,-0.259,-0.5815
-0.05,-0.2655,-0.582
-0.05,-0.2685,-0.5845
-0.048,-0.2695,-0.5825
-0.046,-0.2715,-0.58
-0.045,-0.274,-0.578
-0.048,-0.2765,-0.577
-0.0505,-0.278,-0.585
-0.0495,-0.279,-0.589
-0.0515,-0.283,-0.5835
-0.0545,-0.287,-0.5825
-0.0575,-0.2895,-0.582
-0.055,-0.291,-0.584
-0.057,-0.2925,-0.5905
-0.061,-0.294,-0.601
-0.0565,-0.293,-0.6075
-0.059,-0.293,-0.6025
-0.0635,-0.2935,-0.5935
-0.065,-0.2955,-0.5905
-0.062,-0.2945,-0.598
-0.06,-0.294,-0.604
-0.063,-0.2955,-0.603
-0.0615,-0.293,-0.604
-0.065,-0.2945,-0.6045
-0.0665,-0.294,-0.601
-0.0655,-0.2925,-0.5985
-0.061,-0.294,-0.5935
-0.0555,-0.295,-0.5965
-0.057,-0.294,-0.602
-0.0575,-0.294,-0.5985
-0.057,-0.2965,-0.598
-0.057,-0.297,-0.599
-0.0635,-0.2995,-0.601
-0.061,-0.2985,-0.6055
-0.055,-0.299,-0.607
-0.058,-0.303,-0.609
-0.0555,-0.302,-0.6085
-0.0545,-0.3015,-0.6055
-0.065,-0.3045,-0.6065
-0.075,-0.308,-0.6095
-0.073,-0.3085,-0.6055
-0.066,-0.3065,-0.6005
-0.063,-0.3045,-0.5975
-0.065,-0.3055,-0.5955
-0.069,-0.309,-0.5985
-0.0655,-0.3095,-0.594
-0.063,-0.3085,-0.588
-0.064,-0.308,-0.5975
-0.0615,-0.304,-0.6085
-0.063,-0.302,-0.613
-0.065,-0.305,-0.6105
-0.0625,-0.304,-0.606
-0.0585,-0.305,-0.6045
-0.0595,-0.308,-0.607
-0.061,-0.3095,-0.607
-0.0635,-0.3125,-0.609
-0.0635,-0.314,-0.6115
-0.068,-0.3135,-0.605
-0.068,-0.313,-0.6005
-0.069,-0.312,-0.603
-0.0705,-0.311,-0.608
-0.064,-0.313,-0.608
-0.068,-0.314,-0.6105
-0.067,-0.3135,-0.609
-0.0645,-0.3125,-0.604
-0.0645,-0.3105,-0.6065
-0.069,-0.3115,-0.607
-0.0675,-0.31,-0.6095
-0.06,-0.307,-0.614
-0.0625,-0.3075,-0.611
-0.063,-0.3105,-0.6085
-0.0665,-0.312,-0.609
-0.0645,-0.311,-0.612
-0.06,-0.3135,-0.6135
-0.0595,-0.3165,-0.6085
-0.057,-0.3175,-0.61
-0.0565,-0.318,-0.6145
-0.06,-0.318,-0.613
-0.065,-0.318,-0.6105
-0.0655,-0.3195,-0.613
-0.0695,-0.3215,-0.6155
-0.069,-0.318,-0.6145
-0.062,-0.314,-0.6125
-0.058,-0.313,-0.608
-0.0575,-0.314,-0.605
-0.059,-0.313,-0.6045
-0.0585,-0.3105,-0.6025
-0.0575,-0.311,-0.6005
-0.056,-0.3115,-0.6025
-0.054,-0.3095,-0.6075
-0.055,-0.3105,-0.6105
-0.0535,-0.307,-0.6145
-0.0525,-0.306,-0.6175
-0.0555,-0.312,-0.616
-0.061,-0.3135,-0.619
-0.0585,-0.315,-0.6225
-0.0535,-0.315,-0.6185
-0.057,-0.3145,-0.6155
-0.0545,-0.308,-0.614
-0.0575,-0.31,-0.616
-0.0615,-0.318,-0.6205
-0.0615,-0.3165,-0.62
-0.0645,-0.319,-0.622
-0.062,-0.3205,-0.6205
-0.061,-0.32,-0.614
-0.06,-0.32,-0.6135
-0.0645,-0.321,-0.6115
-0.0605,-0.321,-0.6125
-0.0565,-0.321,-0.618
-0.063,-0.322,-0.622
-0.064,-0.323,-0.6265
-0.0675,-0.3255,-0.624
-0.0595,-0.323,-0.619
-0.0515,-0.3205,-0.6215
-0.0545,-0.321,-0.6215
-0.0605,-0.323,-0.6295
-0.062,-0.324,-0.6365
-0.0605,-0.321,-0.634
-0.0635,-0.3205,-0.628
-0.06,-0.3195,-0.622
-0.0565,-0.3195,-0.625
-0.0595,-0.322,-0.625
-0.0645,-0.3225,-0.627
-0.067,-0.3225,-0.6275
-0.0645,-0.3195,-0.6255
-0.059,-0.316,-0.6225
-0.0605,-0.317,-0.6225
-0.0635,-0.3205,-0.6295
-0.065,-0.3235,-0.6325
-0.0665,-0.321,-0.6305
-0.068,-0.32,-0.6305
-0.0705,-0.321,-0.6365
-0.0615,-0.319,-0.636
-0.058,-0.319,-0.634
-0.0615,-0.3215,-0.633
-0.0565,-0.3175,-0.633
-0.0605,-0.319,-0.6345
-0.0635,-0.323,-0.6275
-0.054,-0.32,-0.6195
-0.053,-0.3215,-0.622
-0.0585,-0.3235,-0.625
-0.063,-0.327,-0.629
-0.068,-0.3275,-0.639
-0.0685,-0.3255,-0.64
-0.0745,-0.327,-0.626
-0.0735,-0.327,-0.624
-0.0655,-0.327,-0.6355
-0.0665,-0.327,-0.643
-0.065,-0.3265,-0.6405
-0.0655,-0.3275,-0.6365
-0.067,-0.3295,-0.639
-0.0625,-0.328,-0.6365
-0.062,-0.33,-0.64
-0.0615,-0.3315,-0.6395
-0.0555,-0.3285,-0.6385
-0.06,-0.3295,-0.6465
-0.0655,-0.333,-0.649
-0.0575,-0.33,-0.648
-0.0575,-0.3285,-0.6455
-0.06,-0.3325,-0.647
-0.064,-0.334,-0.648
-0.063,-0.334,-0.651
-0.0605,-0.3325,-0.652
-0.06,-0.3305,-0.6515
-0.0595,-0.3295,-0.645
-0.0655,-0.331,-0.6395
-0.065,-0.33,-0.6435
-0.064,-0.3285,-0.646
-0.0645,-0.332,-0.6495
-0.065,-0.331,-0.653
-0.066,-0.3305,-0.6565
-0.0635,-0.3305,-0.6525
-0.0625,-0.332,-0.644
-0.0635,-0.3365,-0.6465
-0.064,-0.336,-0.654
-0.058,-0.3345,-0.6555
-0.056,-0.3325,-0.6545
-0.058,-0.335,-0.652
-0.06,-0.3335,-0.6545
-0.0625,-0.3345,-0.6565
-0.061,-0.332,-0.654
-0.061,-0.3315,-0.6555
-0.0615,-0.337,-0.6595
-0.0585,-0.335,-0.6555
-0.065,-0.336,-0.6535
-0.068,-0.338,-0.654
-0.068,-0.34,-0.6515
-0.069,-0.342,-0.6525
-0.06,-0.34,-0.6535
-0.056,-0.337,-0.6605
-0.0535,-0.338,-0.6625
-0.055,-0.342,-0.6575
-0.06,-0.3415,-0.653
-0.0615,-0.3455,-0.652
-0.061,-0.35,-0.652
-0.062,-0.3475,-0.6505
-0.0635,-0.3485,-0.6505
-0.0565,-0.349,-0.6535
-0.0565,-0.3495,-0.654
-0.0565,-0.349,-0.647
-0.0615,-0.35,-0.6465
-0.0635,-0.3515,-0.65
-0.064,-0.351,-0.649
-0.07,-0.3555,-0.651
-0.0675,-0.359,-0.6545
-0.0705,-0.3605,-0.6545
-0.0635,-0.359,-0.6585
-0.0625,-0.3565,-0.6645
-0.064,-0.3565,-0.665
-0.0605,-0.3575,-0.6595
-0.064,-0.358,-0.659
-0.0645,-0.3555,-0.663
-0.067,-0.357,-0.661
-0.066,-0.36,-0.6605
-0.061,-0.3585,-0.6585
-0.061,-0.3615,-0.654
-0.0645,-0.365,-0.659
-0.0625,-0.3635,-0.6595
-0.062,-0.3645,-0.658
-0.064,-0.363,-0.6565
-0.065,-0.3615,-0.6575
-0.068,-0.3655,-0.659
-0.068,-0.3645,-0.6545
-0.0695,-0.3625,-0.6585
-0.0695,-0.3615,-0.661
-0.068,-0.36,-0.6595
-0.072,-0.3595,-0.6595
-0.0745,-0.3645,-0.658
-0.075,-0.3685,-0.657
-0.0725,-0.3625,-0.6605
-0.0655,-0.3585,-0.6625
-0.064,-0.357,-0.6645
-0.0675,-0.3585,-0.6655
-0.066,-0.3605,-0.668
-0.0665,-0.362,-0.673
-0.0695,-0.361,-0.6725
-0.062,-0.357,-0.668
-0.064,-0.36,-0.6635
-0.0685,-0.362,-0.6555
-0.0565,-0.3605,-0.6565
-0.0555,-0.361,-0.6675
-0.0645,-0.365,-0.6645
-0.0715,-0.368,-0.666
-0.0745,-0.367,-0.6655
-0.0715,-0.3675,-0.6575
-0.0655,-0.3645,-0.66
-0.0645,-0.3625,-0.6595
-0.07,-0.368,-0.658
-0.0695,-0.3715,-0.66
-0.0655,-0.37,-0.6595
-0.064,-0.367,-0.6585
-0.071,-0.368,-0.66
-0.07,-0.37,-0.6615
-0.0645,-0.372,-0.6625
-0.0695,-0.373,-0.6735
-0.0655,-0.3725,-0.6755
-0.065,-0.373,-0.6665
-0.0685,-0.3735,-0.66
-0.0745,-0.3745,-0.6575
-0.08,-0.3765,-0.6585
-0.073,-0.375,-0.661
-0.071,-0.373,-0.662
-0.0705,-0.371,-0.6625
-0.0715,-0.3725,-0.662
-0.0735,-0.3735,-0.659
-0.0705,-0.3685,-0.6615
-0.0715,-0.3705,-0.6615
-0.07,-0.3715,-0.665
-0.071,-0.3715,-0.6705
-0.072,-0.3725,-0.6655
-0.0645,-0.3685,-0.663
-0.0715,-0.3715,-0.664
-0.074,-0.37,-0.667
-0.0695,-0.3685,-0.672
-0.068,-0.371,-0.672
-0.0685,-0.3725,-0.67
-0.074,-0.3735,-0.673
-0.072,-0.37,-0.6705
-0.072,-0.369,-0.661
-0.071,-0.371,-0.657
-0.0705,-0.374,-0.6585
-0.0715,-0.376,-0.662
-0.0735,-0.377,-0.6605
-0.077,-0.379,-0.6575
-0.075,-0.374,-0.6605
-0.0715,-0.374,-0.6605
-0.075,-0.378,-0.663
-0.078,-0.38,-0.6705
-0.0755,-0.3825,-0.6685
-0.074,-0.3825,-0.669
-0.0715,-0.3815,-0.669
-0.071,-0.3785,-0.6625
-0.069,-0.3775,-0.662
-0.067,-0.3775,-0.662
-0.062,-0.375,-0.6615
-0.063,-0.3745,-0.664
-0.0705,-0.375,-0.666
-0.0735,-0.3765,-0.6635
-0.0745,-0.375,-0.663
-0.0715,-0.3745,-0.667
-0.0735,-0.3755,-0.667
-0.075,-0.376,-0.6705
-0.073,-0.376,-0.673
-0.0745,-0.3785,-0.669
-0.077,-0.3795,-0.665
-0.079,-0.379,-0.664
-0.078,-0.3815,-0.6665
-0.0785,-0.384,-0.669
-0.0795,-0.384,-0.67
-0.0745,-0.384,-0.674
-0.0725,-0.3855,-0.678
-0.0725,-0.382,-0.6755
-0.074,-0.382,-0.669
-0.0745,-0.387,-0.6685
-0.0685,-0.385,-0.6735
-0.0715,-0.3845,-0.676
-0.078,-0.386,-0.676
-0.0745,-0.3865,-0.67
-0.0745,-0.3845,-0.6645
-0.073,-0.3845,-0.6635
-0.067,-0.3815,-0.6635
-0.0675,-0.3805,-0.667
-0.071,-0.3825,-0.665
-0.072,-0.3825,-0.6665
-0.0695,-0.3825,-0.671
-0.072,-0.3805,-0.668
-0.0725,-0.379,-0.672
-0.0655,-0.377,-0.6735
-0.063,-0.3785,-0.6675
-0.06,-0.3775,-0.67
-0.062,-0.3785,-0.67
-0.0665,-0.377,-0.674
-0.0705,-0.374,-0.6785
-0.0725,-0.377,-0.6705
-0.069,-0.376,-0.6635
-0.07,-0.3775,-0.668
-0.065,-0.369,-0.666
-0.0595,-0.366,-0.6515
-0.062,-0.3755,-0.6535
-0.0685,-0.3785,-0.6595
-0.0775,-0.381,-0.663
-0.0705,-0.382,-0.6615
-0.0695,-0.3805,-0.653
-0.0745,-0.383,-0.6505
-0.074,-0.384,-0.646
-0.074,-0.3825,-0.6455
-0.073,-0.3825,-0.645
-0.0735,-0.382,-0.643
-0.073,-0.38,-0.6445
-0.0715,-0.378,-0.6375
-0.066,-0.375,-0.6345
-0.061,-0.3735,-0.6375
-0.061,-0.372,-0.63
-0.06,-0.3705,-0.626
-0.06,-0.372,-0.626
-0.061,-0.3725,-0.6285
-0.062,-0.37,-0.628
-0.066,-0.3715,-0.6175
-0.0695,-0.371,-0.614
-0.072,-0.3715,-0.617
-0.076,-0.3725,-0.6185
-0.0785,-0.374,-0.6185
-0.076,-0.3725,-0.617
-0.072,-0.3685,-0.6185
-0.0705,-0.3695,-0.6165
-0.065,-0.3675,-0.609
-0.065,-0.369,-0.6115
-0.0675,-0.372,-0.618
-0.064,-0.3695,-0.6165
-0.0665,-0.3685,-0.6135
-0.0705,-0.3705,-0.614
-0.0665,-0.369,-0.6135
-0.067,-0.37,-0.613
-0.072,-0.3725,-0.6105
-0.071,-0.3695,-0.6085
-0.074,-0.368,-0.6
-0.074,-0.365,-0.5885
-0.071,-0.3645,-0.5815
-0.0705,-0.362,-0.5625
-0.073,-0.3655,-0.554
-0.075,-0.369,-0.5485
-0.074,-0.3635,-0.5385
-0.0685,-0.3615,-0.5405
-0.0655,-0.3605,-0.532
-0.066,-0.36,-0.5325
-0.0645,-0.3595,-0.5325
-0.0635,-0.3605,-0.53
-0.055,-0.3595,-0.5295
-0.051,-0.358,-0.5235
-0.051,-0.359,-0.5285
-0.057,-0.364,-0.5375
-0.0605,-0.3645,-0.545
-0.0535,-0.3585,-0.546
-0.051,-0.3565,-0.5485
-0.0445,-0.354,-0.552
-0.0425,-0.3545,-0.56
-0.042,-0.355,-0.562
-0.0445,-0.352,-0.553
-0.049,-0.3515,-0.5515
-0.047,-0.3515,-0.5595
-0.0465,-0.35,-0.564
-0.0505,-0.3505,-0.5625
-0.0455,-0.3485,-0.563
-0.0365,-0.342,-0.565
-0.037,-0.336,-0.572
-0.0325,-0.334,-0.575
-0.0285,-0.3305,-0.5755
-0.0315,-0.329,-0.5815
-0.031,-0.328,-0.5885
-0.0265,-0.3235,-0.59
-0.025,-0.321,-0.5935
-0.0245,-0.319,-0.6025
-0.022,-0.3175,-0.609
-0.0195,-0.321,-0.616
-0.021,-0.3245,-0.623
-0.0195,-0.324,-0.625
-0.0135,-0.32,-0.622
-0.017,-0.32,-0.6165
-0.0255,-0.3195,-0.615
-0.026,-0.3175,-0.6175
-0.0215,-0.3145,-0.6195
-0.019,-0.3125,-0.616
-0.022,-0.3115,-0.608
-0.0225,-0.308,-0.605
-0.0215,-0.307,-0.6065
-0.026,-0.307,-0.604
-0.026,-0.3105,-0.6
-0.026,-0.315,-0.609
-0.0345,-0.3185,-0.622
-0.039,-0.3225,-0.629
-0.042,-0.325,-0.6345
-0.052,-0.3275,-0.644
-0.054,-0.3305,-0.6535
-0.0565,-0.33,-0.6565
-0.0615,-0.331,-0.6595
-0.0595,-0.339,-0.6575
-0.056,-0.3415,-0.6555
-0.061,-0.341,-0.6565
-0.069,-0.3445,-0.6525
-0.0765,-0.3515,-0.6525
-0.0775,-0.358,-0.656
-0.076,-0.363,-0.6535
-0.081,-0.369,-0.651
-0.0775,-0.3705,-0.6585
-0.0835,-0.3725,-0.6655
-0.09,-0.3735,-0.674
-0.087,-0.375,-0.68
-0.0845,-0.378,-0.6805
-0.084,-0.381,-0.6825
-0.083,-0.3815,-0.683
-0.082,-0.385,-0.682
-0.087,-0.3915,-0.687
-0.0865,-0.392,-0.696
-0.0835,-0.393,-0.695
-0.0845,-0.393,-0.696
-0.081,-0.391,-0.6945
-0.0765,-0.3925,-0.69
-0.0835,-0.398,-0.693
-0.088,-0.3995,-0.6935
-0.0895,-0.4005,-0.6965
-0.0905,-0.4015,-0.6975
-0.0865,-0.3995,-0.7005
-0.088,-0.4005,-0.7
-0.0895,-0.403,-0.6955
-0.092,-0.402,-0.6955
-0.09,-0.4,-0.6985
-0.088,-0.401,-0.698
-0.093,-0.4035,-0.696
-0.094,-0.404,-0.6985
-0.089,-0.401,-0.6975
-0.0885,-0.397,-0.6985
-0.091,-0.3995,-0.702
-0.0915,-0.4025,-0.702
-0.0945,-0.403,-0.7005
-0.0915,-0.401,-0.709
-0.091,-0.401,-0.7065
-0.0915,-0.401,-0.696
-0.0905,-0.3975,-0.695
-0.0965,-0.4015,-0.6915
-0.096,-0.403,-0.698
-0.091,-0.3985,-0.7055
-0.0845,-0.3965,-0.697
-0.0885,-0.4005,-0.691
-0.091,-0.403,-0.6965
-0.093,-0.401,-0.6955
-0.094,-0.397,-0.6875
-0.089,-0.397,-0.689
-0.096,-0.4075,-0.702
-0.0965,-0.4105,-0.707
-0.0915,-0.4075,-0.7055
-0.0855,-0.401,-0.7125
-0.084,-0.4015,-0.7205
-0.0895,-0.4105,-0.7255
-0.0835,-0.4105,-0.737
-0.0775,-0.404,-0.745
-0.0755,-0.3955,-0.7535
-0.0725,-0.392,-0.766
-0.071,-0.3885,-0.7645
-0.072,-0.3855,-0.7595
-0.0745,-0.383,-0.7545
-0.076,-0.3805,-0.7465
-0.0835,-0.384,-0.736
-0.0865,-0.372,-0.7215
-0.0755,-0.336,-0.702
-0.0565,-0.2915,-0.683
-0.04,-0.249,-0.67
-0.0245,-0.208,-0.6585
-0.008,-0.1595,-0.645
0.008,-0.1075,-0.6355
0.029,-0.055,-0.623
0.043,-0.004,-0.602
0.067,0.071,-0.588
0.111,0.1815,-0.576
0.159,0.3135,-0.5505
0.1955,0.445,-0.5135
0.219,0.5735,-0.4505
0.2455,0.721,-0.3755
0.2705,0.8765,-0.3065
0.3055,1.043,-0.251
0.3505,1.2165,-0.215
0.3895,1.3845,-0.176
0.427,1.5325,-0.1445
0.448,1.67,-0.1125
0.4755,1.7985,-0.0685
0.4955,1.8945,-0.027
0.506,1.972,0.0105
0.52,2.012,0.031
0.524,2.0145,0.042
0.5235,1.989,0.058
0.5025,1.929,0.0795
0.4775,1.839,0.1
0.4445,1.724,0.1285
0.398,1.5895,0.1655
0.352,1.4375,0.1785
0.3085,1.295,0.19
0.2555,1.143,0.2105
0.193,0.9815,0.2245
0.145,0.846,0.232
0.096,0.7,0.2355
0.051,0.5495,0.235
0.005,0.3925,0.228
-0.0395,0.2495,0.2255
-0.0685,0.133,0.2145
-0.085,0.03,0.189
-0.0805,-0.0145,0.156
-0.0775,-0.0435,0.129
-0.085,-0.0825,0.0945
-0.094,-0.1265,0.052
-0.097,-0.1765,-0.0095
-0.0985,-0.2215,-0.0745
-0.1025,-0.2555,-0.103
-0.108,-0.293,-0.1235
-0.116,-0.336,-0.137
-0.119,-0.3625,-0.1535
-0.1225,-0.391,-0.186
-0.1195,-0.4085,-0.221
-0.112,-0.409,-0.2505
-0.1115,-0.4105,-0.2765
-0.112,-0.4135,-0.303
-0.1055,-0.4115,-0.3345
-0.0995,-0.413,-0.374
-0.0955,-0.415,-0.4045
-0.097,-0.412,-0.4315
-0.0985,-0.408,-0.4525
-0.094,-0.398,-0.4615
-0.0905,-0.3885,-0.47
-0.089,-0.386,-0.4835
-0.0855,-0.387,-0.5045
-0.08,-0.3825,-0.519
-0.081,-0.3755,-0.5355
-0.08,-0.3665,-0.547
-0.0695,-0.353,-0.5475
-0.071,-0.348,-0.5665
-0.077,-0.3465,-0.582
-0.0735,-0.3405,-0.59
-0.0745,-0.343,-0.603
-0.069,-0.343,-0.608
-0.0665,-0.3395,-0.606
-0.069,-0.343,-0.6085
-0.067,-0.3455,-0.6125
-0.0695,-0.345,-0.6165
-0.072,-0.345,-0.6225
-0.071,-0.3465,-0.6205
-0.065,-0.344,-0.627
-0.062,-0.3435,-0.6365
-0.0685,-0.3515,-0.635
-0.075,-0.3575,-0.635
-0.0715,-0.355,-0.6405
-0.067,-0.353,-0.6485
-0.0665,-0.3535,-0.6495
-0.061,-0.3525,-0.6475
-0.0615,-0.353,-0.654
-0.063,-0.3535,-0.654
-0.0575,-0.353,-0.651
-0.054,-0.3515,-0.658
-0.054,-0.3525,-0.6595
-0.061,-0.3525,-0.659
-0.062,-0.35,-0.6565
-0.063,-0.351,-0.6555
-0.072,-0.3535,-0.6555
-0.073,-0.356,-0.6575
-0.0705,-0.357,-0.663
-0.0705,-0.355,-0.6595
-0.068,-0.3505,-0.6565
-0.0585,-0.3455,-0.6555
-0.0575,-0.347,-0.6615
-0.062,-0.3475,-0.661
-0.0595,-0.3465,-0.659
-0.0585,-0.3475,-0.666
-0.063,-0.3495,-0.6675
-0.0645,-0.35,-0.673
-0.0645,-0.349,-0.6715
-0.064,-0.3475,-0.672
-0.0645,-0.349,-0.6735
-0.063,-0.349,-0.668
-0.061,-0.3495,-0.667
-0.0575,-0.349,-0.6645
-0.0465,-0.345,-0.666
-0.048,-0.3445,-0.669
-0.0555,-0.341,-0.6685
-0.0525,-0.339,-0.6695
-0.051,-0.3405,-0.6655
-0.0555,-0.34,-0.6645
-0.057,-0.34,-0.663
-0.0595,-0.3415,-0.654
-0.059,-0.342,-0.6545
-0.0545,-0.3355,-0.652
-0.0535,-0.335,-0.6515
-0.05,-0.3415,-0.6615
-0.049,-0.341,-0.6625
-0.05,-0.34,-0.66
-0.049,-0.338,-0.66
-0.047,-0.335,-0.6655
-0.049,-0.3385,-0.6665
-0.048,-0.3365,-0.6625
-0.0415,-0.334,-0.6625
-0.04,-0.334,-0.6595
-0.042,-0.3325,-0.6605
-0.043,-0.3345,-0.661
-0.0495,-0.337,-0.6575
-0.055,-0.339,-0.6655
-0.0545,-0.3375,-0.667
-0.052,-0.3405,-0.6635
-0.053,-0.3445,-0.6665
-0.055,-0.341,-0.662
-0.0555,-0.3385,-0.657
-0.053,-0.336,-0.6525
-0.0475,-0.3355,-0.651
-0.0475,-0.336,-0.653
-0.047,-0.332,-0.649
-0.0455,-0.3295,-0.6505
-0.046,-0.329,-0.654
-0.0415,-0.3245,-0.6535
-0.0415,-0.325,-0.653
-0.049,-0.326,-0.6515
-0.0495,-0.3255,-0.6495
-0.048,-0.324,-0.652
-0.0465,-0.3185,-0.657
-0.0445,-0.317,-0.6535
-0.041,-0.314,-0.65
-0.0435,-0.314,-0.654
-0.0445,-0.316,-0.6565
-0.041,-0.316,-0.654
-0.0435,-0.317,-0.6485
-0.0415,-0.3155,-0.6455
-0.039,-0.315,-0.6435
-0.0375,-0.316,-0.637
-0.0355,-0.314,-0.6385
-0.0435,-0.3155,-0.646
-0.0435,-0.317,-0.651
-0.042,-0.3175,-0.645
-0.045,-0.318,-0.6385
-0.0355,-0.312,-0.641
-0.034,-0.3075,-0.64
-0.034,-0.307,-0.6455
-0.0345,-0.307,-0.6505
-0.032,-0.3025,-0.649
-0.0305,-0.2985,-0.6455
-0.031,-0.2995,-0.6435
-0.0305,-0.2995,-0.6385
-0.033,-0.2985,-0.637
-0.029,-0.2995,-0.6385
-0.025,-0.3005,-0.637
-0.0255,-0.299,-0.639
-0.0305,-0.302,-0.631
-0.026,-0.3005,-0.623
-0.018,-0.2945,-0.6155
-0.0225,-0.2965,-0.619
-0.032,-0.298,-0.627
-0.0335,-0.296,-0.6305
-0.0265,-0.2915,-0.6325
-0.026,-0.2875,-0.6285
-0.0305,-0.287,-0.6265
-0.0305,-0.286,-0.6225
-0.0255,-0.283,-0.6185
-0.021,-0.279,-0.619
-0.02,-0.279,-0.6255
-0.024,-0.281,-0.624
-0.0265,-0.282,-0.625
-0.021,-0.2775,-0.6285
-0.0185,-0.2745,-0.6215
-0.0195,-0.272,-0.6165
-0.016,-0.2675,-0.615
-0.012,-0.2645,-0.6085
-0.0135,-0.2625,-0.605
-0.0215,-0.2675,-0.6085
-0.0235,-0.2655,-0.6065
-0.0215,-0.2615,-0.604
-0.0195,-0.2625,-0.607
-0.014,-0.2585,-0.6055
-0.01,-0.253,-0.6035
-0.0095,-0.25,-0.6085
-0.012,-0.249,-0.606
-0.014,-0.249,-0.602
-0.0155,-0.247,-0.5995
-0.0115,-0.24,-0.597
-0.0045,-0.232,-0.5985
-0.003,-0.232,-0.592
-0.004,-0.2325,-0.592
-0.006,-0.2285,-0.5915
-0.005,-0.225,-0.59
-0.0025,-0.2225,-0.5885
-0.006,-0.222,-0.5875
-0.012,-0.2215,-0.5965
-0.0135,-0.2155,-0.5935
-0.0105,-0.2105,-0.586
-0.006,-0.209,-0.5855
-0.0015,-0.204,-0.584
0.0055,-0.1995,-0.579
0.0035,-0.196,-0.5815
-0.003,-0.1965,-0.5815
0.001,-0.1995,-0.576
0.0125,-0.193,-0.5735
0.0155,-0.187,-0.574
0.014,-0.1835,-0.569
0.0155,-0.1785,-0.561
0.0155,-0.1745,-0.5605
0.015,-0.1735,-0.5555
0.017,-0.1685,-0.556
0.0205,-0.1615,-0.5545
0.0215,-0.1575,-0.552
0.0315,-0.149,-0.5455
0.031,-0.146,-0.5455
0.0265,-0.1455,-0.548
0.027,-0.142,-0.5375
0.0235,-0.1395,-0.5345
0.034,-0.1345,-0.527
0.036,-0.1295,-0.524
0.034,-0.128,-0.5275
0.039,-0.124,-0.528
0.041,-0.117,-0.5265
0.04,-0.116,-0.5205
0.044,-0.1135,-0.524
0.0505,-0.1075,-0.5195
0.0475,-0.104,-0.508
0.0485,-0.0985,-0.509
0.0505,-0.0925,-0.5085
0.0495,-0.0875,-0.502
0.0525,-0.0795,-0.4925
0.0545,-0.0735,-0.4865
0.056,-0.0695,-0.4875
0.0575,-0.064,-0.4825
0.0565,-0.0585,-0.483
0.0525,-0.053,-0.4795
0.0555,-0.0485,-0.4755
0.062,-0.041,-0.476
0.0645,-0.032,-0.4725
0.063,-0.029,-0.4685
0.064,-0.0245,-0.465
0.0675,-0.02,-0.4625
0.0725,-0.0165,-0.4575
0.071,-0.0125,-0.4575
0.063,-0.0095,-0.4565
0.0615,-0.006,-0.449
0.066,-0.001,-0.446
0.0715,0.001,-0.446
0.0755,0.0055,-0.441
0.075,0.009,-0.4325
0.067,0.0055,-0.429
0.0665,0.0115,-0.426
0.0755,0.0195,-0.422
0.0765,0.0235,-0.422
0.0705,0.025,-0.4275
0.07,0.0245,-0.426
0.0715,0.0255,-0.417
0.072,0.0265,-0.4125
0.0755,0.0295,-0.4085
0.0755,0.031,-0.4055
0.074,0.0325,-0.409
0.076,0.0355,-0.408
0.0735,0.037,-0.407
0.0755,0.0435,-0.411
0.0795,0.047,-0.4085
0.0865,0.0475,-0.4005
0.088,0.051,-0.398
0.0755,0.05,-0.402
0.077,0.0515,-0.4095
0.0815,0.055,-0.406
0.082,0.0525,-0.397
0.0795,0.0525,-0.4005
0.075,0.055,-0.402
0.0715,0.0555,-0.402
0.0735,0.0535,-0.4
0.0765,0.052,-0.3975
0.0715,0.0505,-0.398
0.071,0.047,-0.399
0.073,0.0445,-0.3995
0.071,0.04,-0.399
0.07,0.034,-0.405
0.065,0.029,-0.408
0.061,0.0225,-0.411
0.0655,0.017,-0.4135
0.0655,0.015,-0.4165
0.0625,0.01,-0.418
0.062,0.002,-0.4165
0.056,-0.0055,-0.424
0.0535,-0.014,-0.4305
0.0535,-0.0175,-0.4325
0.045,-0.0215,-0.434
0.0415,-0.0325,-0.4345
0.039,-0.04,-0.4385
0.039,-0.0445,-0.4455
0.0415,-0.0525,-0.448
0.035,-0.062,-0.4525
0.0275,-0.067,-0.461
0.027,-0.071,-0.464
0.026,-0.078,-0.4695
0.0245,-0.0865,-0.473
0.019,-0.099,-0.4795
0.015,-0.11,-0.4925
0.017,-0.116,-0.4985
0.0165,-0.1205,-0.4995
0.0135,-0.1255,-0.5055
0.0105,-0.1315,-0.51
0.016,-0.1385,-0.5105
0.012,-0.144,-0.513
0.004,-0.1525,-0.5205
0.0015,-0.159,-0.5255
-0.005,-0.1645,-0.5315
-0.0075,-0.172,-0.5415
-0.0015,-0.1725,-0.538
-0.0015,-0.178,-0.5335
-0.0105,-0.1905,-0.5365
-0.013,-0.1975,-0.5405
-0.019,-0.202,-0.542
-0.0195,-0.2065,-0.5485
-0.0185,-0.209,-0.5515
-0.0245,-0.2155,-0.557
-0.0245,-0.2205,-0.567
-0.0215,-0.223,-0.568
-0.025,-0.229,-0.5695
-0.0265,-0.234,-0.571
-0.0285,-0.2395,-0.5725
-0.033,-0.2425,-0.57
-0.0335,-0.245,-0.5735
-0.0355,-0.2495,-0.581
-0.0335,-0.25,-0.587
-0.0325,-0.2505,-0.5855
-0.032,-0.2515,-0.583
-0.0285,-0.2515,-0.5855
-0.0345,-0.254,-0.5855
-0.0365,-0.2615,-0.59
-0.032,-0.2645,-0.588
-0.0365,-0.2675,-0.59
-0.0405,-0.272,-0.5945
-0.0365,-0.2725,-0.5925
-0.037,-0.275,-0.5905
-0.0395,-0.2765,-0.595
-0.043,-0.279,-0.6015
-0.043,-0.2805,-0.602
-0.038,-0.28,-0.6025
-0.031,-0.28,-0.599
-0.031,-0.28,-0.6005
-0.039,-0.2825,-0.6035
-0.041,-0.283,-0.61
-0.038,-0.2845,-0.6205
-0.0375,-0.29,-0.617
-0.041,-0.2905,-0.606
-0.0425,-0.2895,-0.6065
-0.046,-0.2925,-0.61
-0.0435,-0.2925,-0.612
-0.0405,-0.29,-0.6105
-0.047,-0.293,-0.6045
-0.0475,-0.297,-0.6035
-0.046,-0.295,-0.607
-0.0405,-0.2945,-0.606
-0.041,-0.2965,-0.606
-0.038,-0.2925,-0.611
-0.033,-0.292,-0.6075
-0.034,-0.291,-0.612
-0.027,-0.292,-0.609
-0.032,-0.296,-0.599
-0.037,-0.295,-0.608
-0.0385,-0.2955,-0.609
-0.037,-0.294,-0.6115
-0.0365,-0.293,-0.6165
-0.04,-0.2925,-0.6125
-0.0335,-0.2915,-0.6105
-0.0335,-0.294,-0.607
-0.039,-0.298,-0.612
-0.042,-0.3,-0.6135
-0.0365,-0.2995,-0.6065
-0.033,-0.299,-0.6035
-0.0375,-0.299,-0.6035
-0.0415,-0.299,-0.6035
-0.039,-0.3005,-0.5985
-0.0395,-0.3015,-0.5995
-0.042,-0.3015,-0.6015
-0.038,-0.3015,-0.6055
-0.032,-0.2995,-0.6105
-0.031,-0.2995,-0.6055
-0.0385,-0.301,-0.604
-0.041,-0.302,-0.6075
-0.04,-0.303,-0.6115
-0.033,-0.2965,-0.6065
-0.0315,-0.2935,-0.603
-0.0395,-0.298,-0.606
-0.039,-0.299,-0.607
-0.036,-0.296,-0.606
-0.0365,-0.294,-0.6015
-0.04,-0.2985,-0.603
-0.0405,-0.3025,-0.606
-0.0425,-0.303,-0.603
-0.0495,-0.306,-0.6025
-0.0555,-0.304,-0.603
-0.0525,-0.299,-0.6015
-0.0505,-0.301,-0.6035
-0.0515,-0.301,-0.602
-0.0475,-0.299,-0.6035
-0.0435,-0.2965,-0.604
-0.046,-0.2955,-0.6005
-0.0445,-0.296,-0.607
-0.0375,-0.2945,-0.607
-0.0415,-0.298,-0.6065
-0.0455,-0.2985,-0.6145
-0.04,-0.296,-0.62
-0.0405,-0.297,-0.623
-0.0435,-0.3,-0.6235
-0.0435,-0.298,-0.6185
-0.0435,-0.298,-0.6155
-0.0435,-0.304,-0.618
-0.043,-0.306,-0.621
-0.0485,-0.31,-0.6155
-0.05,-0.311,-0.614
-0.0415,-0.31,-0.6175
-0.04,-0.311,-0.6135
-0.0435,-0.3115,-0.613
-0.045,-0.312,-0.612
-0.042,-0.3065,-0.614
-0.04,-0.3045,-0.622
-0.042,-0.3045,-0.6145
-0.044,-0.3045,-0.606
-0.045,-0.309,-0.6135
-0.0445,-0.3115,-0.616
-0.039,-0.3065,-0.611
-0.0375,-0.3045,-0.6135
-0.042,-0.3045,-0.618
-0.0415,-0.302,-0.62
-0.0475,-0.3045,-0.6175
-0.049,-0.3045,-0.616
-0.0425,-0.3015,-0.6185
-0.041,-0.303,-0.615
-0.0405,-0.306,-0.6135
-0.0395,-0.3065,-0.618
-0.039,-0.302,-0.6165
-0.0445,-0.301,-0.611
-0.046,-0.3055,-0.604
-0.0435,-0.309,-0.608
-0.045,-0.308,-0.616
-0.0465,-0.3055,-0.614
-0.044,-0.3055,-0.6155
-0.0365,-0.303,-0.6145
-0.0395,-0.304,-0.6105
-0.0365,-0.303,-0.6115
-0.033,-0.302,-0.6175
-0.038,-0.308,-0.624
-0.0385,-0.307,-0.6225
-0.042,-0.308,-0.621
-0.0425,-0.3095,-0.621
-0.0465,-0.31,-0.617
-0.046,-0.305,-0.613
-0.04,-0.302,-0.616
-0.0475,-0.308,-0.617
-0.046,-0.3065,-0.61
-0.049,-0.3045,-0.611
-0.049,-0.303,-0.6125
-0.044,-0.3015,-0.609
-0.047,-0.3025,-0.6125
-0.0415,-0.302,-0.62
-0.045,-0.3035,-0.6225
-0.0555,-0.3075,-0.621
-0.052,-0.3045,-0.622
-0.039,-0.3005,-0.6315
-0.0425,-0.305,-0.63
-0.05,-0.3075,-0.6265
-0.0475,-0.309,-0.631
-0.0445,-0.311,-0.6295
-0.0475,-0.3095,-0.6235
-0.046,-0.3065,-0.6225
-0.0375,-0.305,-0.626
-0.0395,-0.306,-0.622
-0.0415,-0.3075,-0.6145
-0.046,-0.31,-0.61
-0.0535,-0.313,-0.623
-0.0525,-0.314,-0.636
-0.0465,-0.312,-0.6275
-0.043,-0.3105,-0.6165
-0.0455,-0.309,-0.615
-0.0455,-0.309,-0.62
-0.0465,-0.3095,-0.627
-0.0495,-0.3105,-0.6285
-0.053,-0.313,-0.6275
-0.0515,-0.314,-0.627
-0.0445,-0.3105,-0.627
-0.0405,-0.309,-0.6265
-0.0395,-0.3145,-0.6275
-0.0395,-0.3165,-0.628
-0.0325,-0.314,-0.629
-0.0375,-0.3145,-0.635
-0.049,-0.317,-0.6375
-0.05,-0.317,-0.634
-0.052,-0.319,-0.63
-0.05,-0.319,-0.6315
-0.0435,-0.314,-0.6305
-0.045,-0.315,-0.625
-0.0455,-0.315,-0.623
-0.046,-0.3155,-0.623
-0.0495,-0.317,-0.6275
-0.0475,-0.316,-0.6315
-0.0475,-0.3155,-0.6265
-0.047,-0.3135,-0.6275
-0.048,-0.314,-0.6325
-0.047,-0.3165,-0.6305
-0.042,-0.3165,-0.631
-0.0415,-0.3165,-0.6325
-0.0435,-0.318,-0.64
-0.046,-0.3195,-0.641
-0.0465,-0.3235,-0.638
-0.0475,-0.3235,-0.629
-0.0475,-0.3245,-0.6225
-0.0465,-0.324,-0.629
-0.05,-0.3245,-0.6305
-0.0495,-0.328,-0.632
-0.0505,-0.324,-0.635
-0.0545,-0.323,-0.6385
-0.0545,-0.3265,-0.6325
-0.053,-0.3315,-0.6275
-0.052,-0.3295,-0.6345
-0.0495,-0.324,-0.6425
-0.0495,-0.3275,-0.643
-0.052,-0.329,-0.6395
-0.0485,-0.328,-0.6395
-0.051,-0.3295,-0.6395
-0.0515,-0.331,-0.637
-0.0475,-0.3315,-0.6365
-0.0425,-0.328,-0.6375
-0.0455,-0.33,-0.643
-0.0485,-0.332,-0.646
-0.047,-0.332,-0.64
-0.049,-0.333,-0.6395
-0.0535,-0.335,-0.6375
-0.056,-0.336,-0.638
-0.05,-0.3325,-0.643
-0.055,-0.333,-0.6435
-0.054,-0.3295,-0.64
-0.048,-0.326,-0.64
-0.0555,-0.332,-0.6425
-0.0515,-0.3345,-0.6465
-0.0405,-0.334,-0.643
-0.04,-0.3325,-0.6375
-0.0445,-0.329,-0.6465
-0.0485,-0.3335,-0.645
-0.051,-0.3375,-0.647
-0.0505,-0.3345,-0.651
-0.0515,-0.3345,-0.6465
-0.051,-0.337,-0.645
-0.0485,-0.339,-0.647
-0.0505,-0.34,-0.651
-0.054,-0.3405,-0.6495
-0.054,-0.3395,-0.6475
-0.052,-0.3385,-0.645
-0.0475,-0.3385,-0.642
-0.0405,-0.3355,-0.6405
-0.0405,-0.335,-0.643
-0.046,-0.3365,-0.6445
-0.0475,-0.3345,-0.642
-0.0485,-0.335,-0.6365
-0.051,-0.3345,-0.634
-0.051,-0.3345,-0.639
-0.051,-0.3325,-0.6355
-0.0525,-0.331,-0.6335
-0.0505,-0.3325,-0.6405
-0.051,-0.332,-0.6415
-0.0505,-0.3325,-0.6445
-0.0495,-0.3355,-0.64
-0.0525,-0.339,-0.637
-0.0535,-0.34,-0.645
-0.055,-0.3405,-0.641
-0.0585,-0.3425,-0.6365
-0.0585,-0.3435,-0.638
-0.0565,-0.344,-0.6395
-0.058,-0.3475,-0.641
-0.056,-0.35,-0.6405
-0.053,-0.3475,-0.644
-0.0575,-0.348,-0.644
-0.0575,-0.348,-0.644
-0.063,-0.347,-0.645
-0.0605,-0.3465,-0.643
-0.057,-0.347,-0.6445
-0.062,-0.3475,-0.6455
-0.0545,-0.3445,-0.641
-0.054,-0.3425,-0.641
-0.0495,-0.3415,-0.6435
-0.0465,-0.3395,-0.6415
-0.051,-0.338,-0.646
-0.051,-0.339,-0.649
-0.049,-0.3395,-0.6445
-0.048,-0.341,-0.6445
-0.0545,-0.345,-0.6405
-0.0515,-0.341,-0.6395
-0.052,-0.34,-0.6435
-0.0545,-0.344,-0.641
-0.054,-0.3425,-0.6385
-0.057,-0.341,-0.6415
-0.052,-0.34,-0.644
-0.05,-0.338,-0.641
-0.052,-0.338,-0.639
-0.0515,-0.339,-0.639
-0.0485,-0.342,-0.644
-0.0475,-0.3445,-0.6475
-0.0475,-0.3415,-0.6445
-0.0475,-0.34,-0.645
-0.0435,-0.3395,-0.6485
-0.0325,-0.3395,-0.648
-0.0315,-0.341,-0.6525
-0.0385,-0.342,-0.6555
-0.041,-0.3445,-0.6535
-0.044,-0.345,-0.6555
-0.048,-0.346,-0.654
-0.048,-0.3465,-0.65
-0.0475,-0.3445,-0.645
-0.048,-0.347,-0.643
-0.0525,-0.347,-0.643
-0.0505,-0.3445,-0.637
-0.048,-0.3445,-0.6355
-0.0495,-0.346,-0.637
-0.051,-0.345,-0.64
-0.0515,-0.3435,-0.643
-0.0485,-0.3445,-0.6435
-0.0465,-0.3455,-0.652
-0.0415,-0.345,-0.6505
-0.043,-0.345,-0.647
-0.042,-0.3465,-0.647
-0.041,-0.346,-0.6425
-0.0395,-0.3445,-0.6445
-0.0355,-0.3425,-0.647
-0.0405,-0.3435,-0.652
-0.043,-0.345,-0.6495
-0.044,-0.346,-0.6475
-0.04,-0.345,-0.6485
-0.0405,-0.3445,-0.6465
-0.0475,-0.3475,-0.648
-0.044,-0.348,-0.6495
-0.0435,-0.3505,-0.6505
-0.0435,-0.3485,-0.645
-0.0405,-0.3455,-0.6385
-0.0395,-0.346,-0.6375
-0.0375,-0.351,-0.642
-0.0355,-0.3535,-0.642
-0.0335,-0.351,-0.6385
-0.038,-0.3515,-0.6405
-0.04,-0.3505,-0.644
-0.0405,-0.3515,-0.6485
-0.0435,-0.355,-0.648
-0.0385,-0.3525,-0.6465
-0.0335,-0.351,-0.651
-0.0365,-0.3535,-0.6535
-0.0395,-0.354,-0.6455
-0.0365,-0.3505,-0.638
-0.038,-0.348,-0.6385
-0.0375,-0.348,-0.6395
-0.033,-0.344,-0.6375
-0.0325,-0.3435,-0.637
-0.0365,-0.346,-0.647
-0.0405,-0.3435,-0.645
-0.041,-0.3425,-0.6345
-0.039,-0.343,-0.631
-0.0365,-0.3415,-0.6305
-0.043,-0.342,-0.634
-0.041,-0.3415,-0.6295
-0.0375,-0.342,-0.627
-0.0405,-0.3415,-0.625
-0.04,-0.3405,-0.6255
-0.04,-0.34,-0.6275
-0.041,-0.337,-0.62
-0.0385,-0.336,-0.6155
-0.0405,-0.338,-0.6125
-0.0465,-0.339,-0.6085
-0.0435,-0.3385,-0.603
-0.0445,-0.3395,-0.5935
-0.045,-0.3395,-0.59
-0.044,-0.3385,-0.5895
-0.0445,-0.339,-0.5875
-0.0435,-0.3385,-0.5845
-0.043,-0.338,-0.581
-0.0455,-0.338,-0.5815
-0.0485,-0.3365,-0.586
-0.047,-0.335,-0.5875
-0.0425,-0.3305,-0.585
-0.0345,-0.3245,-0.5755
-0.0335,-0.3255,-0.574
-0.0335,-0.326,-0.582
-0.039,-0.326,-0.584
-0.043,-0.327,-0.586
-0.038,-0.3245,-0.587
-0.034,-0.3235,-0.5905
-0.03,-0.3235,-0.596
-0.03,-0.3235,-0.594
-0.03,-0.3205,-0.583
-0.031,-0.3195,-0.5705
-0.0355,-0.322,-0.56
-0.0365,-0.324,-0.5555
-0.0375,-0.326,-0.549
-0.0385,-0.3235,-0.5345
-0.034,-0.322,-0.529
-0.0355,-0.321,-0.5205
-0.041,-0.32,-0.5125
-0.0365,-0.3205,-0.512
-0.034,-0.32,-0.5065
-0.0285,-0.317,-0.5025
-0.0215,-0.313,-0.5005
-0.0185,-0.3105,-0.502
-0.0155,-0.3075,-0.5015
-0.0185,-0.3075,-0.5035
-0.0155,-0.3065,-0.5075
-0.0105,-0.3045,-0.511
-0.0095,-0.303,-0.5145
-0.0085,-0.302,-0.5165
-0.008,-0.3015,-0.5205
-0.0095,-0.3005,-0.52
-0.0095,-0.301,-0.5255
-0.0095,-0.304,-0.5275
-0.007,-0.3055,-0.526
-0.006,-0.3045,-0.53
-0.004,-0.3055,-0.526
-0.006,-0.3095,-0.525
-0.0105,-0.308,-0.527
-0.0005,-0.302,-0.531
0.0025,-0.3005,-0.538
0.0025,-0.299,-0.5415
0.003,-0.2965,-0.5515
0.004,-0.294,-0.556
0.0065,-0.2925,-0.559
0.0055,-0.291,-0.5665
0.009,-0.288,-0.5675
0.0075,-0.288,-0.5745
0.0095,-0.2865,-0.578
0.018,-0.2805,-0.583
0.018,-0.2735,-0.581
0.023,-0.27,-0.5735
0.0235,-0.2735,-0.5825
0.0175,-0.2755,-0.5875
0.0145,-0.2765,-0.5925
0.0155,-0.274,-0.5965
0.016,-0.2695,-0.592
0.0145,-0.267,-0.59
0.014,-0.268,-0.5805
0.0125,-0.269,-0.568
0.015,-0.265,-0.5655
0.018,-0.2645,-0.568
0.0145,-0.266,-0.5715
0.008,-0.266,-0.585
0.0085,-0.2685,-0.593
0.006,-0.2725,-0.5995
0.0045,-0.2775,-0.6075
0.0075,-0.28,-0.61
0.006,-0.2805,-0.6135
0.0015,-0.285,-0.617
-0.0055,-0.29,-0.6165
-0.0135,-0.296,-0.6135
-0.019,-0.3005,-0.6165
-0.0165,-0.3025,-0.6205
-0.016,-0.306,-0.6195
-0.024,-0.309,-0.619
-0.0315,-0.3145,-0.621
-0.0335,-0.317,-0.6265
-0.038,-0.3175,-0.633
-0.037,-0.3195,-0.6345
-0.0345,-0.323,-0.637
-0.0405,-0.326,-0.642
-0.0405,-0.3265,-0.6445
-0.0405,-0.331,-0.647
-0.043,-0.3335,-0.655
-0.0435,-0.334,-0.657
-0.043,-0.3355,-0.656
-0.039,-0.3365,-0.656
-0.0365,-0.3395,-0.6585
-0.04,-0.3405,-0.6655
-0.0435,-0.342,-0.6645
-0.0455,-0.3445,-0.6635
-0.042,-0.345,-0.6625
-0.0435,-0.3475,-0.664
-0.047,-0.3505,-0.668
-0.043,-0.3505,-0.6675
-0.0455,-0.352,-0.6705
-0.047,-0.3535,-0.6705
-0.0485,-0.353,-0.6675
-0.0485,-0.356,-0.669
-0.051,-0.358,-0.669
-0.0525,-0.3565,-0.6695
-0.0425,-0.3535,-0.672
-0.0395,-0.352,-0.6725
-0.0375,-0.3525,-0.6775
-0.042,-0.3545,-0.676
-0.0455,-0.358,-0.671
-0.04,-0.356,-0.67
-0.0405,-0.353,-0.67
-0.0375,-0.3535,-0.6765
-0.038,-0.3545,-0.6745
-0.041,-0.355,-0.668
-0.041,-0.355,-0.669
-0.043,-0.3545,-0.669
-0.045,-0.355,-0.67
-0.0415,-0.354,-0.6695
-0.0395,-0.3515,-0.6675
-0.0435,-0.351,-0.667
-0.0485,-0.353,-0.668
-0.0515,-0.3555,-0.669
-0.049,-0.3565,-0.6725
-0.0435,-0.3545,-0.6775
-0.0415,-0.3535,-0.678
-0.0435,-0.3545,-0.683
-0.0435,-0.355,-0.6835
-0.045,-0.359,-0.6805
-0.0485,-0.364,-0.6855
-0.043,-0.363,-0.692
-0.0375,-0.3615,-0.701
-0.039,-0.362,-0.7105
-0.0365,-0.363,-0.7155
-0.029,-0.3565,-0.7195
-0.021,-0.347,-0.7245
-0.0185,-0.343,-0.736
-0.019,-0.3355,-0.7355
-0.021,-0.335,-0.729
-0.026,-0.3365,-0.723
-0.03,-0.3375,-0.7065
-0.0355,-0.3395,-0.701
-0.035,-0.3235,-0.69
-0.028,-0.2935,-0.676
-0.019,-0.256,-0.6655
-0.002,-0.214,-0.651
0.0185,-0.172,-0.6385
0.034,-0.12,-0.617
0.0575,-0.069,-0.6015
0.075,-0.022,-0.5825
0.0925,0.035,-0.5645
0.125,0.115,-0.5545
0.16,0.223,-0.5395
0.1925,0.3455,-0.5155
0.2235,0.4755,-0.47
0.2485,0.597,-0.413
0.2735,0.737,-0.349
0.302,0.889,-0.2785
0.3315,1.0445,-0.218
0.373,1.2205,-0.1785
0.406,1.38,-0.1395
0.429,1.52,-0.1025
0.458,1.6605,-0.061
0.489,1.787,-0.018
0.5095,1.8895,0.02
0.522,1.9785,0.0545
0.532,2.0285,0.0715
0.539,2.043,0.0875
0.5375,2.03,0.1125
0.52,1.982,0.143
0.503,1.905,0.1595
0.4745,1.8045,0.179
0.4345,1.69,0.215
0.3955,1.546,0.237
0.349,1.402,0.2485
0.2985,1.2565,0.265
0.243,1.1025,0.274
0.191,0.961,0.2705
0.141,0.8085,0.272
0.0985,0.6605,0.283
0.058,0.506,0.2865
0.018,0.3605,0.2785
-0.0105,0.2425,0.2675
-0.031,0.1385,0.244
-0.024,0.084,0.209
-0.023,0.048,0.1745
-0.0315,0.0045,0.1455
-0.0365,-0.0375,0.108
-0.0455,-0.086,0.0495
-0.0495,-0.134,-0.0055
-0.056,-0.173,-0.0445
-0.052,-0.204,-0.0855
-0.0565,-0.239,-0.106
-0.0675,-0.2725,-0.1185
-0.0695,-0.2965,-0.15
-0.0725,-0.3125,-0.171
-0.071,-0.323,-0.197
-0.0715,-0.331,-0.2305
-0.0745,-0.3395,-0.255
-0.0675,-0.337,-0.2915
-0.064,-0.3385,-0.331
-0.068,-0.3485,-0.361
-0.063,-0.346,-0.3865
-0.056,-0.3415,-0.403
-0.0525,-0.3375,-0.415
-0.052,-0.33,-0.426
-0.053,-0.324,-0.433
-0.054,-0.3265,-0.45
-0.054,-0.325,-0.4735
-0.0495,-0.3165,-0.4865
-0.044,-0.309,-0.5005
-0.044,-0.3005,-0.517
-0.041,-0.294,-0.5275
-0.036,-0.293,-0.534
-0.0395,-0.2915,-0.5435
-0.0375,-0.2895,-0.5505
-0.0355,-0.291,-0.557
-0.034,-0.2915,-0.569
-0.033,-0.2935,-0.574
-0.0375,-0.295,-0.575
-0.039,-0.296,-0.5795
-0.0385,-0.297,-0.5855
-0.0365,-0.297,-0.5865
-0.0375,-0.299,-0.5935
-0.0405,-0.298,-0.5965
-0.039,-0.299,-0.594
-0.0365,-0.3015,-0.6015
-0.033,-0.302,-0.6065
-0.032,-0.301,-0.611
-0.0345,-0.303,-0.6135
-0.036,-0.304,-0.615
-0.0365,-0.303,-0.614
-0.0345,-0.306,-0.617
-0.0315,-0.3055,-0.615
-0.033,-0.3055,-0.6135
-0.036,-0.3055,-0.6145
-0.034,-0.304,-0.614
-0.034,-0.3065,-0.6175
-0.035,-0.308,-0.621
-0.0315,-0.3075,-0.625
-0.033,-0.3065,-0.6175
-0.033,-0.3035,-0.6175
-0.034,-0.3035,-0.624
-0.036,-0.31,-0.627
-0.0335,-0.311,-0.627
-0.0315,-0.308,-0.6245
-0.032,-0.3105,-0.626
-0.0325,-0.309,-0.628
-0.029,-0.308,-0.6295
-0.0275,-0.3095,-0.6275
-0.0245,-0.309,-0.63
-0.0225,-0.308,-0.634
-0.025,-0.3065,-0.633
-0.027,-0.3065,-0.6305
-0.0265,-0.3055,-0.6265
-0.026,-0.3045,-0.6255
-0.0235,-0.304,-0.6285
-0.025,-0.305,-0.628
-0.027,-0.304,-0.623
-0.0235,-0.3015,-0.6195
-0.0245,-0.301,-0.621
-0.0245,-0.2975,-0.626
-0.0235,-0.297,-0.628
-0.02,-0.299,-0.628
-0.021,-0.299,-0.6315
-0.021,-0.3,-0.631
-0.0195,-0.3,-0.627
-0.0195,-0.3005,-0.6275
-0.023,-0.302,-0.623
-0.024,-0.302,-0.622
-0.0205,-0.2985,-0.6245
-0.025,-0.2975,-0.625
-0.027,-0.297,-0.6265
-0.024,-0.2945,-0.622
-0.023,-0.2945,-0.617
-0.023,-0.295,-0.617
-0.022,-0.2925,-0.614
-0.022,-0.292,-0.6145
-0.0215,-0.2915,-0.6175
-0.02,-0.2885,-0.614
-0.0205,-0.289,-0.612
-0.019,-0.288,-0.607
-0.0215,-0.29,-0.605
-0.0225,-0.29,-0.6125
-0.0225,-0.2895,-0.615
-0.0205,-0.2895,-0.6135
-0.0195,-0.287,-0.616
-0.0185,-0.2885,-0.6175
-0.016,-0.2875,-0.618
-0.0155,-0.2885,-0.6155
-0.0095,-0.2875,-0.6145
-0.0115,-0.2865,-0.6155
-0.008,-0.2855,-0.6065
-0.0075,-0.2855,-0.601
-0.015,-0.286,-0.605
-0.021,-0.285,-0.608
-0.026,-0.2865,-0.6095
-0.024,-0.286,-0.606
-0.0215,-0.2835,-0.6035
-0.0205,-0.28,-0.6075
-0.0215,-0.2795,-0.609
-0.02,-0.2785,-0.6065
-0.02,-0.278,-0.607
-0.0175,-0.2775,-0.6095
-0.0165,-0.278,-0.6075
-0.0155,-0.279,-0.6065
-0.013,-0.2755,-0.6135
-0.0165,-0.2735,-0.6145
-0.016,-0.273,-0.6115
-0.017,-0.274,-0.612
-0.0155,-0.273,-0.6135
-0.0105,-0.272,-0.6125
-0.012,-0.2715,-0.6085
-0.0155,-0.27,-0.602
-0.018,-0.269,-0.5945
-0.014,-0.2695,-0.596
-0.012,-0.2695,-0.6
-0.01,-0.27,-0.5935
-0.014,-0.2695,-0.5945
-0.0155,-0.266,-0.5965
-0.014,-0.2645,-0.5915
-0.018,-0.2635,-0.588
-0.012,-0.2615,-0.589
-0.0095,-0.262,-0.593
-0.008,-0.2595,-0.593
-0.005,-0.2565,-0.5905
-0.009,-0.257,-0.5895
-0.008,-0.2585,-0.587
-0.0055,-0.2555,-0.5855
-0.0075,-0.2525,-0.582
-0.0075,-0.252,-0.5785
-0.0035,-0.248,-0.585
-0.0055,-0.2485,-0.5855
-0.012,-0.2485,-0.581
-0.013,-0.2465,-0.578
-0.013,-0.245,-0.5745
-0.012,-0.24,-0.5755
-0.006,-0.236,-0.576
-0.0055,-0.2355,-0.5715
-0.004,-0.2325,-0.57
0.0,-0.231,-0.5685
-0.001,-0.2315,-0.5675
-0.0025,-0.231,-0.568
-0.0015,-0.232,-0.567
-0.001,-0.229,-0.57
-0.0025,-0.2265,-0.568
0.0,-0.2255,-0.5635
0.0005,-0.2235,-0.566
0.001,-0.2205,-0.5635
0.004,-0.2195,-0.5635
0.005,-0.218,-0.561
0.009,-0.215,-0.5565
0.0105,-0.2155,-0.557
0.0055,-0.213,-0.5525
0.0045,-0.2105,-0.5475
0.008,-0.208,-0.5455
0.007,-0.2035,-0.542
0.007,-0.2005,-0.5455
0.0065,-0.1965,-0.549
0.0035,-0.193,-0.546
0.005,-0.1905,-0.539
0.0055,-0.187,-0.5345
0.0055,-0.1845,-0.541
0.008,-0.183,-0.546
0.006,-0.1815,-0.5455
0.009,-0.1785,-0.542
0.0145,-0.1745,-0.538
0.014,-0.173,-0.5395
0.017,-0.1695,-0.5385
0.023,-0.166,-0.536
0.024,-0.1645,-0.5355
0.022,-0.161,-0.5365
0.0205,-0.159,-0.5375
0.023,-0.156,-0.533
0.0215,-0.1525,-0.5285
0.022,-0.149,-0.5235
0.024,-0.143,-0.5185
0.0255,-0.14,-0.5135
0.0275,-0.1365,-0.5115
0.0295,-0.1335,-0.5095
0.0315,-0.1285,-0.5065
0.032,-0.1205,-0.5055
0.036,-0.1195,-0.4985
0.037,-0.1165,-0.4975
0.0385,-0.112,-0.4965
0.0415,-0.107,-0.493
0.0425,-0.102,-0.4885
0.044,-0.0975,-0.483
0.043,-0.0925,-0.4825
0.041,-0.0895,-0.4825
0.043,-0.085,-0.4815
0.0455,-0.0815,-0.48
0.0445,-0.077,-0.475
0.0465,-0.0715,-0.469
0.049,-0.066,-0.46
0.0475,-0.0615,-0.4525
0.05,-0.0585,-0.454
0.054,-0.0545,-0.4535
0.0545,-0.0495,-0.4515
0.056,-0.0435,-0.449
0.0575,-0.038,-0.4385
0.0565,-0.0345,-0.4305
0.055,-0.0295,-0.425
0.061,-0.025,-0.4195
0.065,-0.0205,-0.4205
0.0655,-0.0155,-0.422
0.0685,-0.0115,-0.416
0.071,-0.0055,-0.4105
0.076,0.0015,-0.4055
0.0785,0.006,-0.397
0.076,0.009,-0.3995
0.08,0.0145,-0.404
0.0815,0.0195,-0.403
0.078,0.025,-0.4005
0.08,0.0305,-0.3895
0.076,0.034,-0.3875
0.075,0.037,-0.385
0.0775,0.0405,-0.377
0.0805,0.047,-0.3745
0.0835,0.055,-0.368
0.0785,0.0535,-0.3655
0.0775,0.049,-0.366
0.0795,0.0535,-0.3615
0.0835,0.0595,-0.36
0.0845,0.062,-0.364
0.083,0.063,-0.367
0.0855,0.0665,-0.363
0.087,0.0705,-0.3575
0.0845,0.074,-0.352
0.082,0.0755,-0.349
0.086,0.078,-0.35
0.09,0.081,-0.3505
0.089,0.0825,-0.3455
0.085,0.083,-0.339
0.082,0.084,-0.333
0.0825,0.0855,-0.332
0.0865,0.087,-0.33
0.0875,0.0885,-0.326
0.082,0.088,-0.3305
0.079,0.0875,-0.3335
0.081,0.0865,-0.3315
0.0805,0.087,-0.3315
0.0785,0.087,-0.332
0.0835,0.0865,-0.3305
0.0855,0.086,-0.3305
0.0795,0.082,-0.3355
0.0785,0.079,-0.3345
0.0795,0.0765,-0.3385
0.0785,0.0725,-0.347
0.077,0.0695,-0.35
0.076,0.0675,-0.3515
0.0755,0.064,-0.351
0.0735,0.06,-0.3535
0.0715,0.0545,-0.356
0.0695,0.0485,-0.361
0.0675,0.043,-0.3655
0.0675,0.0365,-0.37
0.065,0.0305,-0.372
0.0635,0.023,-0.373
0.062,0.016,-0.3825
0.0595,0.0105,-0.3845
0.0585,0.004,-0.385
0.0495,-0.0055,-0.393
0.0465,-0.015,-0.4025
0.0505,-0.0225,-0.4075
0.0475,-0.0295,-0.41
0.0445,-0.0365,-0.418
0.043,-0.0435,-0.42
0.042,-0.05,-0.4255
0.038,-0.059,-0.436
0.033,-0.068,-0.4435
0.0295,-0.0755,-0.4475
0.031,-0.0835,-0.4485
0.03,-0.0905,-0.4525
0.0245,-0.097,-0.456
0.024,-0.1025,-0.4615
0.0255,-0.108,-0.462
0.0225,-0.115,-0.4635
0.0175,-0.1215,-0.47
0.0175,-0.126,-0.4765
0.017,-0.1285,-0.4785
0.0115,-0.134,-0.484
0.0085,-0.1405,-0.492
0.007,-0.147,-0.494
0.005,-0.152,-0.498
0.005,-0.1535,-0.4985
0.0075,-0.158,-0.499
0.007,-0.1615,-0.505
0.0055,-0.166,-0.5095
0.001,-0.172,-0.511
-0.002,-0.175,-0.514
0.0005,-0.18,-0.5235
0.001,-0.183,-0.5275
-0.003,-0.1865,-0.5255
-0.0085,-0.1905,-0.5255
-0.0095,-0.1925,-0.5255
-0.006,-0.196,-0.5305
-0.006,-0.2005,-0.5345
-0.007,-0.203,-0.5365
-0.0095,-0.2055,-0.535
-0.012,-0.2065,-0.533
-0.013,-0.208,-0.5355
-0.013,-0.2115,-0.5355
-0.009,-0.2115,-0.538
-0.0075,-0.214,-0.543
-0.0095,-0.2175,-0.545
-0.012,-0.2205,-0.543
-0.013,-0.2215,-0.5495
-0.01,-0.2205,-0.555
-0.005,-0.221,-0.5525
-0.004,-0.2205,-0.5565
-0.009,-0.227,-0.5635
-0.0095,-0.229,-0.5625
-0.012,-0.2275,-0.56
-0.0095,-0.2285,-0.555
-0.005,-0.2295,-0.552
-0.008,-0.2305,-0.5565
-0.009,-0.229,-0.555
-0.01,-0.2315,-0.554
-0.0145,-0.2315,-0.551
-0.017,-0.2325,-0.548
-0.0165,-0.2325,-0.548
-0.0165,-0.232,-0.5455
-0.0145,-0.234,-0.5455
-0.0155,-0.2365,-0.5525
-0.0175,-0.238,-0.5565
-0.018,-0.2375,-0.554
-0.02,-0.239,-0.5525
-0.0195,-0.24,-0.5505
-0.0175,-0.239,-0.551
-0.0145,-0.2405,-0.558
-0.014,-0.2415,-0.5645
-0.016,-0.2395,-0.562
-0.0165,-0.24,-0.561
-0.0155,-0.2395,-0.5585
-0.0125,-0.2405,-0.5535
-0.0175,-0.2415,-0.558
-0.02,-0.242,-0.5595
-0.0225,-0.243,-0.5585
-0.025,-0.242,-0.5605
-0.0225,-0.242,-0.555
-0.022,-0.24,-0.552
-0.022,-0.2405,-0.551
-0.0255,-0.2405,-0.554
-0.0255,-0.2425,-0.5585
-0.0255,-0.244,-0.557
-0.027,-0.2425,-0.555
-0.025,-0.244,-0.5555
-0.0235,-0.242,-0.556
-0.0215,-0.2415,-0.556
-0.0195,-0.2425,-0.5585
-0.0185,-0.242,-0.5585
-0.0165,-0.241,-0.559
-0.0185,-0.241,-0.559
-0.0205,-0.242,-0.5595
-0.02,-0.2415,-0.558
-0.02,-0.2415,-0.5555
-0.0225,-0.241,-0.557
-0.022,-0.244,-0.5555
-0.0205,-0.244,-0.5565
-0.0265,-0.2435,-0.558
-0.025,-0.245,-0.5545
-0.0255,-0.2435,-0.553
-0.0265,-0.244,-0.5535
-0.0225,-0.244,-0.558
-0.0225,-0.244,-0.562
-0.024,-0.244,-0.5615
-0.027,-0.245,-0.563
-0.027,-0.244,-0.5615
-0.025,-0.2425,-0.5555
-0.023,-0.244,-0.556
-0.022,-0.244,-0.557
-0.021,-0.2435,-0.555
-0.0215,-0.2435,-0.554
-0.024,-0.243,-0.554
-0.0285,-0.2425,-0.555
-0.027,-0.2415,-0.558
-0.028,-0.243,-0.5585
-0.0275,-0.2455,-0.557
-0.025,-0.246,-0.557
-0.0265,-0.244,-0.556
-0.0255,-0.245,-0.551
-0.0235,-0.244,-0.55
-0.02,-0.243,-0.5535
-0.02,-0.246,-0.556
-0.0215,-0.2455,-0.56
-0.021,-0.2455,-0.5615
-0.023,-0.246,-0.5615
-0.023,-0.2455,-0.558
-0.0235,-0.2455,-0.5585
-0.0265,-0.246,-0.5625
-0.027,-0.247,-0.5615
-0.0265,-0.246,-0.5625
-0.027,-0.245,-0.561
-0.0285,-0.244,-0.5535
-0.028,-0.241,-0.5515
-0.0345,-0.2425,-0.556
-0.038,-0.2495,-0.558
-0.0365,-0.249,-0.559
-0.037,-0.2445,-0.56
-0.0355,-0.2445,-0.557
-0.0345,-0.245,-0.551
-0.033,-0.246,-0.55
-0.033,-0.2455,-0.5535
-0.029,-0.244,-0.556
-0.027,-0.244,-0.556
-0.0295,-0.2435,-0.5555
-0.0305,-0.244,-0.5555
-0.0285,-0.2425,-0.5545
-0.0275,-0.241,-0.5545
-0.024,-0.243,-0.554
-0.022,-0.2425,-0.5505
-0.0265,-0.244,-0.5545
-0.0295,-0.245,-0.5585
-0.0295,-0.2435,-0.5545
-0.03,-0.2445,-0.556
-0.0285,-0.2435,-0.559
-0.0255,-0.2435,-0.558
-0.0255,-0.2435,-0.556
-0.0275,-0.2425,-0.556
-0.0275,-0.2445,-0.555
-0.0265,-0.244,-0.554
-0.0245,-0.2435,-0.556
-0.0225,-0.2425,-0.56
-0.0185,-0.2425,-0.5605
-0.0165,-0.242,-0.5595
-0.0195,-0.2435,-0.561
-0.02,-0.2435,-0.561
-0.0195,-0.242,-0.5615
-0.0195,-0.2415,-0.5595
-0.0185,-0.241,-0.563
-0.017,-0.241,-0.5645
-0.018,-0.239,-0.564
-0.0205,-0.2385,-0.561
-0.0195,-0.2385,-0.5565
-0.02,-0.237,-0.5605
-0.0175,-0.238,-0.559
-0.0145,-0.2385,-0.5635
-0.0115,-0.238,-0.5625
-0.01,-0.237,-0.558
-0.018,-0.238,-0.5645
-0.0245,-0.24,-0.567
-0.022,-0.2395,-0.566
-0.02,-0.2405,-0.568
-0.0195,-0.2405,-0.57
-0.02,-0.24,-0.5685
-0.0235,-0.2395,-0.568
-0.022,-0.238,-0.566
-0.0195,-0.238,-0.566
-0.0235,-0.239,-0.5665
-0.0255,-0.24,-0.569
-0.0275,-0.2415,-0.572
-0.025,-0.2405,-0.569
-0.0265,-0.241,-0.569
-0.0315,-0.2425,-0.568
-0.031,-0.2435,-0.57
-0.0335,-0.244,-0.5715
-0.0325,-0.244,-0.57
-0.032,-0.2425,-0.5715
-0.0315,-0.2415,-0.572
-0.028,-0.24,-0.572
-0.028,-0.2395,-0.567
-0.03,-0.239,-0.5665
-0.03,-0.2405,-0.568
-0.03,-0.2415,-0.5705
-0.032,-0.2415,-0.575
-0.032,-0.2405,-0.5735
-0.029,-0.2395,-0.5685
-0.0265,-0.2395,-0.5695
-0.027,-0.2405,-0.572
-0.0275,-0.2415,-0.5705
-0.025,-0.24,-0.571
-0.0235,-0.2405,-0.571
-0.028,-0.239,-0.5675
-0.0305,-0.2395,-0.567
-0.029,-0.2425,-0.569
-0.0295,-0.242,-0.5715
-0.027,-0.244,-0.575
-0.0255,-0.2435,-0.5755
-0.0265,-0.2435,-0.576
-0.029,-0.2435,-0.577
-0.03,-0.243,-0.577
-0.0275,-0.2425,-0.575
-0.0285,-0.244,-0.5765
-0.024,-0.2435,-0.5765
-0.0195,-0.241,-0.573
-0.02,-0.2415,-0.572
-0.026,-0.2445,-0.5785
-0.034,-0.2505,-0.584
-0.0335,-0.2505,-0.5815
-0.031,-0.2495,-0.5845
-0.0295,-0.25,-0.582
-0.03,-0.249,-0.583
-0.03,-0.2495,-0.5865
-0.03,-0.2485,-0.579
-0.0295,-0.2485,-0.5785
-0.0285,-0.2495,-0.583
-0.031,-0.251,-0.5845
-0.032,-0.252,-0.5865
-0.0335,-0.251,-0.586
-0.033,-0.2505,-0.582
-0.0345,-0.253,-0.5785
-0.0365,-0.254,-0.5785
-0.033,-0.253,-0.579
-0.0315,-0.253,-0.5815
-0.0325,-0.2535,-0.583
-0.0345,-0.2535,-0.5845
-0.032,-0.2525,-0.587
-0.03,-0.252,-0.587
-0.029,-0.253,-0.5865
-0.029,-0.2545,-0.586
-0.0305,-0.2545,-0.588
-0.029,-0.2545,-0.59
-0.03,-0.256,-0.5885
-0.0305,-0.255,-0.5835
-0.032,-0.255,-0.58
-0.0345,-0.2565,-0.5845
-0.0345,-0.257,-0.5855
-0.034,-0.2575,-0.5865
-0.0355,-0.2585,-0.588
-0.0375,-0.258,-0.5865
-0.0355,-0.2575,-0.584
-0.0325,-0.2575,-0.5835
-0.033,-0.257,-0.5885
-0.033,-0.2575,-0.5875
-0.033,-0.2595,-0.5855
-0.0315,-0.2575,-0.5845
-0.0295,-0.257,-0.588
-0.0325,-0.259,-0.591
-0.036,-0.2585,-0.5905
-0.034,-0.2595,-0.5965
-0.0335,-0.2595,-0.5965
-0.038,-0.26,-0.597
-0.0395,-0.2615,-0.593
-0.0415,-0.261,-0.5885
-0.042,-0.2605,-0.5885
-0.0405,-0.262,-0.5885
-0.0405,-0.262,-0.591
-0.04,-0.261,-0.588
-0.0395,-0.26,-0.5895
-0.0405,-0.261,-0.588
-0.0435,-0.2605,-0.5875
-0.043,-0.259,-0.5875
-0.0435,-0.26,-0.586
-0.0425,-0.2605,-0.589
-0.041,-0.262,-0.5885
-0.0405,-0.2625,-0.587
-0.0375,-0.262,-0.586
-0.04,-0.2615,-0.5905
-0.041,-0.2625,-0.5895
-0.0395,-0.264,-0.5865
-0.0405,-0.2625,-0.588
-0.0415,-0.262,-0.592
-0.044,-0.263,-0.5915
-0.0455,-0.262,-0.5875
-0.0425,-0.2615,-0.5885
-0.0435,-0.2615,-0.5875
-0.043,-0.2625,-0.587
-0.0405,-0.265,-0.585
-0.0445,-0.2645,-0.5865
-0.046,-0.265,-0.5855
-0.045,-0.266,-0.5815
-0.052,-0.2655,-0.583
-0.052,-0.267,-0.5855
-0.0495,-0.2685,-0.5885
-0.0535,-0.269,-0.586
-0.051,-0.269,-0.5855
-0.0515,-0.268,-0.588
-0.0525,-0.268,-0.586
-0.0535,-0.268,-0.5865
-0.054,-0.267,-0.591
-0.054,-0.265,-0.5925
-0.0565,-0.266,-0.589
-0.0585,-0.272,-0.5905
-0.059,-0.272,-0.591
-0.054,-0.2695,-0.589
-0.053,-0.2695,-0.59
-0.0535,-0.269,-0.587
-0.051,-0.269,-0.5845
-0.0495,-0.2695,-0.588
-0.052,-0.2695,-0.5865
-0.055,-0.27,-0.5845
-0.055,-0.2715,-0.5855
-0.052,-0.2705,-0.5835
-0.0515,-0.2705,-0.586
-0.053,-0.2695,-0.589
-0.0515,-0.2695,-0.5885
-0.05,-0.268,-0.5835
-0.0515,-0.267,-0.585
-0.0525,-0.269,-0.5875
-0.0475,-0.269,-0.5905
-0.0475,-0.27,-0.5945
-0.0495,-0.2685,-0.593
-0.048,-0.2675,-0.5925
-0.05,-0.268,-0.588
-0.0505,-0.2695,-0.5855
-0.0485,-0.269,-0.587
-0.047,-0.267,-0.5865
-0.046,-0.2665,-0.5845
-0.047,-0.267,-0.58
-0.0475,-0.2665,-0.5785
-0.051,-0.2675,-0.5805
-0.057,-0.269,-0.5805
-0.056,-0.2695,-0.581
-0.0525,-0.2685,-0.5855
-0.0505,-0.2685,-0.5845
-0.05,-0.27,-0.585
-0.05,-0.269,-0.587
-0.05,-0.2665,-0.5845
-0.0495,-0.267,-0.588
-0.0475,-0.267,-0.5935
-0.0475,-0.267,-0.5965
-0.046,-0.267,-0.5975
-0.044,-0.2655,-0.5925
-0.045,-0.267,-0.5915
-0.0485,-0.2675,-0.5895
-0.0475,-0.2675,-0.585
-0.0465,-0.267,-0.584
-0.0485,-0.2665,-0.584
-0.049,-0.266,-0.585
-0.0475,-0.2655,-0.5815
-0.048,-0.2665,-0.579
-0.05,-0.267,-0.5795
-0.0505,-0.2675,-0.58
-0.0485,-0.267,-0.5805
-0.0465,-0.2675,-0.581
-0.0455,-0.268,-0.5785
-0.0465,-0.268,-0.577
-0.0475,-0.2685,-0.58
-0.046,-0.2685,-0.5785
-0.044,-0.2665,-0.5805
-0.043,-0.266,-0.584
-0.046,-0.2685,-0.5865
-0.0495,-0.2705,-0.5875
-0.05,-0.27,-0.5825
-0.0505,-0.2685,-0.582
-0.0495,-0.268,-0.5805
-0.0465,-0.268,-0.5795
-0.0475,-0.2685,-0.5795
-0.045,-0.268,-0.577
-0.0445,-0.2655,-0.578
-0.047,-0.266,-0.578
-0.045,-0.265,-0.579
-0.044,-0.267,-0.5795
-0.0405,-0.267,-0.579
-0.041,-0.265,-0.582
-0.0435,-0.267,-0.584
-0.045,-0.2655,-0.5835
-0.043,-0.2655,-0.582
-0.0405,-0.2655,-0.5805
-0.0385,-0.265,-0.5755
-0.035,-0.264,-0.572
-0.0355,-0.263,-0.5775
-0.0375,-0.263,-0.5785
-0.042,-0.262,-0.5725
-0.043,-0.261,-0.5725
-0.0405,-0.259,-0.569
-0.0395,-0.256,-0.566
-0.043,-0.2605,-0.5715
-0.041,-0.262,-0.571
-0.038,-0.2575,-0.563
-0.0395,-0.256,-0.555
-0.0385,-0.2555,-0.551
-0.0395,-0.2565,-0.551
-0.0405,-0.2555,-0.548
-0.0385,-0.255,-0.5405
-0.0375,-0.255,-0.538
-0.0395,-0.255,-0.5405
-0.038,-0.254,-0.5385
-0.038,-0.254,-0.533
-0.039,-0.256,-0.5295
-0.0375,-0.2545,-0.5285
-0.038,-0.2545,-0.528
-0.037,-0.2545,-0.5265
-0.04,-0.2535,-0.5265
-0.038,-0.253,-0.5235
-0.0365,-0.252,-0.518
-0.038,-0.2515,-0.5195
-0.036,-0.2495,-0.5195
-0.0365,-0.248,-0.522
-0.0325,-0.2455,-0.5215
-0.0325,-0.2445,-0.517
-0.038,-0.2455,-0.5185
-0.037,-0.2445,-0.5195
-0.037,-0.2445,-0.5225
-0.0385,-0.246,-0.524
-0.038,-0.247,-0.517
-0.0405,-0.244,-0.51
-0.0405,-0.241,-0.5045
-0.041,-0.2415,-0.492
-0.0415,-0.243,-0.4835
-0.04,-0.243,-0.483
-0.041,-0.2445,-0.4795
-0.0435,-0.245,-0.4745
-0.042,-0.2445,-0.465
-0.037,-0.242,-0.455
-0.0365,-0.2395,-0.4525
-0.0365,-0.2385,-0.448
-0.034,-0.237,-0.4425
-0.0305,-0.2355,-0.4435
-0.0265,-0.232,-0.438
-0.0235,-0.2315,-0.4385
-0.022,-0.2315,-0.445
-0.0205,-0.2315,-0.451
-0.0175,-0.2325,-0.466
-0.014,-0.2305,-0.4665
-0.012,-0.2285,-0.464
-0.014,-0.227,-0.4645
-0.0155,-0.225,-0.4635
-0.0145,-0.2255,-0.4685
-0.0155,-0.2285,-0.4725
-0.0125,-0.2295,-0.4765
-0.009,-0.229,-0.483
-0.01,-0.2305,-0.487
-0.008,-0.2295,-0.4805
-0.0035,-0.2235,-0.4795
-0.0005,-0.2195,-0.4845
0.0005,-0.216,-0.4855
0.004,-0.2125,-0.488
0.0065,-0.21,-0.4915
0.0045,-0.2085,-0.495
0.0025,-0.2045,-0.5005
0.0055,-0.2005,-0.505
0.011,-0.197,-0.5105
0.0165,-0.195,-0.517
0.0205,-0.193,-0.5205
0.021,-0.19,-0.5275
0.022,-0.188,-0.5295
0.0185,-0.1905,-0.531
0.021,-0.1905,-0.537
0.025,-0.187,-0.54
0.0195,-0.188,-0.5395
0.016,-0.189,-0.54
0.0105,-0.19,-0.5455
0.0075,-0.189,-0.54
0.008,-0.189,-0.533
0.0035,-0.1905,-0.529
0.0035,-0.1895,-0.527
0.004,-0.191,-0.528
0.004,-0.1895,-0.522
0.0035,-0.1915,-0.521
0.0025,-0.195,-0.527
0.001,-0.198,-0.532
-0.0035,-0.2,-0.537
-0.0005,-0.2015,-0.5435
0.001,-0.206,-0.5525
0.0015,-0.208,-0.557
0.0005,-0.2095,-0.5545
-0.0055,-0.214,-0.5585
-0.01,-0.2205,-0.567
-0.015,-0.222,-0.5665
-0.0145,-0.2225,-0.5635
-0.018,-0.228,-0.566
-0.024,-0.2325,-0.5665
-0.0265,-0.2335,-0.566
-0.03,-0.238,-0.57
-0.028,-0.239,-0.5725
-0.032,-0.24,-0.5745
-0.036,-0.245,-0.5795
-0.037,-0.2485,-0.584
-0.0405,-0.25,-0.5865
-0.04,-0.2505,-0.59
-0.0405,-0.2545,-0.5915
-0.0405,-0.256,-0.594
-0.037,-0.2565,-0.5945
-0.039,-0.259,-0.5935
-0.043,-0.262,-0.5985
-0.045,-0.2645,-0.605
-0.047,-0.2655,-0.608
-0.0465,-0.267,-0.608
-0.044,-0.2675,-0.61
-0.0415,-0.2685,-0.615
-0.041,-0.2695,-0.6165
-0.0415,-0.27,-0.6145
-0.043,-0.2695,-0.611
-0.042,-0.27,-0.609
-0.04,-0.271,-0.609
-0.043,-0.2715,-0.607
-0.0445,-0.272,-0.6075
-0.043,-0.2705,-0.61
-0.0435,-0.27,-0.6105
-0.0465,-0.2705,-0.61
-0.0475,-0.2705,-0.6085
-0.0465,-0.271,-0.6095
-0.044,-0.2705,-0.6115
-0.044,-0.2695,-0.611
-0.047,-0.2715,-0.6125
-0.045,-0.2715,-0.6135
-0.044,-0.2695,-0.6115
-0.0465,-0.271,-0.612
-0.0465,-0.272,-0.613
-0.045,-0.271,-0.6115
-0.046,-0.271,-0.616
-0.0475,-0.2705,-0.615
-0.046,-0.2695,-0.61
-0.045,-0.2695,-0.6095
-0.05,-0.2715,-0.608
-0.052,-0.2715,-0.608
-0.051,-0.271,-0.61
-0.051,-0.2705,-0.6125
-0.049,-0.2705,-0.612
-0.049,-0.272,-0.6155
-0.054,-0.2755,-0.619
-0.0525,-0.277,-0.6205
-0.0475,-0.2775,-0.627
-0.0455,-0.2785,-0.6345
-0.042,-0.28,-0.639
-0.041,-0.2815,-0.649
-0.0365,-0.274,-0.659
-0.0305,-0.267,-0.6625
-0.026,-0.263,-0.6675
-0.0255,-0.261,-0.668
-0.0285,-0.264,-0.666
-0.0345,-0.2645,-0.654
-0.0405,-0.268,-0.639
-0.0395,-0.265,-0.6315
-0.031,-0.241,-0.6155
-0.02,-0.208,-0.594
-0.0095,-0.17,-0.5795
0.008,-0.129,-0.5725
0.0255,-0.0835,-0.5585
0.0375,-0.0325,-0.538
0.0595,0.02,-0.5255
0.0845,0.072,-0.511
0.108,0.129,-0.4995
0.139,0.206,-0.4905
0.1835,0.31,-0.473
0.2235,0.4285,-0.4515
0.2475,0.5405,-0.4145
0.2645,0.6485,-0.357
0.2885,0.7745,-0.2945
0.317,0.9155,-0.2285
0.352,1.067,-0.1685
0.3935,1.221,-0.1225
0.421,1.3625,-0.0815
0.446,1.4965,-0.046
0.469,1.6215,-0.0035
0.4955,1.741,0.044
0.524,1.843,0.0845
0.5465,1.92,0.1125
0.5605,1.9565,0.121
0.564,1.9595,0.136
0.5625,1.947,0.162
0.5445,1.8955,0.186
0.5265,1.8185,0.1945
0.5055,1.7365,0.2055
0.465,1.625,0.2305
0.4215,1.491,0.24
0.381,1.365,0.238
0.334,1.235,0.2425
0.274,1.091,0.251
0.221,0.954,0.2485
0.1775,0.8235,0.248
0.134,0.6955,0.266
0.0935,0.564,0.278
0.054,0.441,0.281
0.0185,0.33,0.2755
-0.001,0.2365,0.2575
0.008,0.191,0.2255
0.017,0.156,0.1845
0.009,0.112,0.15
-0.0035,0.071,0.114
-0.014,0.0285,0.0585
-0.015,-0.011,-0.0055
-0.0175,-0.044,-0.051
-0.022,-0.0755,-0.0825
-0.024,-0.102,-0.0985
-0.028,-0.1305,-0.1055
-0.033,-0.154,-0.1185
-0.039,-0.174,-0.1405
-0.044,-0.192,-0.167
-0.0415,-0.1955,-0.1905
-0.043,-0.2065,-0.2205
-0.0415,-0.2135,-0.2565
-0.0435,-0.2225,-0.2885
-0.049,-0.2325,-0.3115
-0.0475,-0.23,-0.331
-0.0495,-0.229,-0.351
-0.0495,-0.2225,-0.3645
-0.0465,-0.2175,-0.373
-0.046,-0.215,-0.3905
-0.045,-0.214,-0.4145
-0.0435,-0.2125,-0.433
-0.0395,-0.205,-0.446
-0.0345,-0.2,-0.4605
-0.0345,-0.1995,-0.473
-0.0345,-0.199,-0.4795
-0.0335,-0.2005,-0.489
-0.038,-0.202,-0.498
-0.042,-0.203,-0.5075
-0.0405,-0.2065,-0.519
-0.039,-0.2085,-0.528
-0.0395,-0.21,-0.53
-0.0395,-0.214,-0.5295
-0.04,-0.2175,-0.5325
-0.04,-0.2185,-0.5345
-0.0415,-0.2215,-0.5385
-0.0405,-0.223,-0.54
-0.0355,-0.2225,-0.539
-0.033,-0.2225,-0.543
-0.032,-0.223,-0.5485
-0.0325,-0.222,-0.5485
-0.0335,-0.222,-0.5485
-0.0345,-0.2245,-0.5545
-0.034,-0.2255,-0.5585
-0.0345,-0.227,-0.559
-0.0305,-0.226,-0.556
-0.031,-0.2265,-0.5595
-0.0345,-0.2285,-0.561
-0.0325,-0.2275,-0.5585
-0.0325,-0.2275,-0.56
-0.031,-0.229,-0.5625
-0.0295,-0.23,-0.566
-0.03,-0.229,-0.566
-0.0325,-0.2295,-0.5635
-0.035,-0.2295,-0.5625
-0.0385,-0.228,-0.5665
-0.0375,-0.2275,-0.567
-0.0345,-0.229,-0.5665
-0.0365,-0.2285,-0.5695
-0.037,-0.227,-0.5655
-0.037,-0.226,-0.5615
-0.0375,-0.2265,-0.5645
-0.038,-0.229,-0.5685
-0.0365,-0.229,-0.571
-0.034,-0.229,-0.571
-0.032,-0.229,-0.567
-0.0305,-0.229,-0.5655
-0.0335,-0.2285,-0.569
-0.031,-0.2275,-0.5675
-0.027,-0.2285,-0.569
-0.027,-0.2285,-0.574
-0.025,-0.2285,-0.574
-0.024,-0.2265,-0.572
-0.0275,-0.225,-0.566
-0.029,-0.224,-0.5645
-0.0305,-0.224,-0.5675
-0.034,-0.2235,-0.5655
-0.0335,-0.224,-0.565
-0.0335,-0.2255,-0.5635
-0.033,-0.2245,-0.565
-0.035,-0.2225,-0.5645
-0.039,-0.2225,-0.56
-0.038,-0.223,-0.562
-0.0345,-0.221,-0.565
-0.0325,-0.22,-0.5635
-0.029,-0.221,-0.558
-0.0265,-0.2205,-0.557
-0.033,-0.221,-0.5605
-0.0345,-0.2215,-0.5645
-0.029,-0.2215,-0.5665
-0.0265,-0.2205,-0.5655
-0.028,-0.2195,-0.566
-0.0295,-0.219,-0.565
-0.0285,-0.2175,-0.561
-0.0295,-0.218,-0.5555
-0.03,-0.217,-0.556
-0.03,-0.2175,-0.5575
-0.033,-0.2185,-0.557
-0.033,-0.218,-0.556
-0.0315,-0.219,-0.556
-0.0295,-0.219,-0.556
-0.0265,-0.217,-0.5525
-0.023,-0.2145,-0.553
-0.0245,-0.215,-0.5595
-0.031,-0.2145,-0.5615
-0.0305,-0.2135,-0.558
-0.0315,-0.2145,-0.5565
-0.0345,-0.212,-0.557
-0.031,-0.212,-0.5575
-0.0295,-0.212,-0.556
-0.029,-0.21,-0.554
-0.025,-0.209,-0.5515
-0.023,-0.209,-0.547
-0.0255,-0.2095,-0.544
-0.0265,-0.209,-0.546
-0.0265,-0.2065,-0.5485
-0.0275,-0.2055,-0.553
-0.024,-0.205,-0.552
-0.02,-0.204,-0.5505
-0.022,-0.2035,-0.5495
-0.023,-0.2015,-0.5465
-0.0255,-0.202,-0.5475
-0.0265,-0.204,-0.547
-0.027,-0.203,-0.5465
-0.024,-0.2015,-0.543
-0.0205,-0.2005,-0.537
-0.0225,-0.1995,-0.5365
-0.024,-0.199,-0.5385
-0.0235,-0.1985,-0.539
-0.025,-0.1975,-0.5405
-0.03,-0.1975,-0.5465
-0.0295,-0.1985,-0.545
-0.028,-0.1975,-0.5415
-0.0285,-0.1965,-0.539
-0.0255,-0.196,-0.5365
-0.024,-0.194,-0.539
-0.02,-0.1935,-0.535
-0.0165,-0.192,-0.5295
-0.021,-0.1915,-0.5275
-0.0205,-0.1885,-0.523
-0.0215,-0.1865,-0.526
-0.024,-0.1875,-0.5305
-0.022,-0.1855,-0.528
-0.0195,-0.1835,-0.526
-0.0195,-0.1825,-0.524
-0.0195,-0.1815,-0.5235
-0.0175,-0.1785,-0.5265
-0.016,-0.176,-0.523
-0.018,-0.176,-0.5225
-0.018,-0.175,-0.522
-0.0155,-0.1725,-0.52
-0.0145,-0.169,-0.52
-0.0135,-0.1675,-0.5175
-0.018,-0.1705,-0.517
-0.02,-0.17,-0.5135
-0.0175,-0.167,-0.511
-0.016,-0.166,-0.51
-0.014,-0.1635,-0.5105
-0.0125,-0.1625,-0.514
-0.015,-0.1615,-0.513
-0.017,-0.1585,-0.51
-0.0165,-0.1575,-0.5095
-0.016,-0.1555,-0.5035
-0.012,-0.154,-0.502
-0.009,-0.153,-0.505
-0.007,-0.15,-0.5025
-0.0055,-0.148,-0.4995
-0.0065,-0.145,-0.501
-0.006,-0.142,-0.5015
-0.0035,-0.1395,-0.499
-0.001,-0.1375,-0.5005
0.001,-0.1355,-0.498
0.0005,-0.1325,-0.493
-0.001,-0.1285,-0.487
0.002,-0.126,-0.485
0.006,-0.126,-0.4865
0.0075,-0.1225,-0.4825
0.007,-0.119,-0.4795
0.0075,-0.1185,-0.4755
0.008,-0.115,-0.473
0.008,-0.111,-0.475
0.011,-0.1065,-0.4685
0.0125,-0.1045,-0.467
0.012,-0.101,-0.468
0.0145,-0.0955,-0.4685
0.0145,-0.096,-0.4675
0.014,-0.093,-0.459
0.016,-0.0865,-0.4575
0.0175,-0.082,-0.4555
0.02,-0.079,-0.457
0.022,-0.0765,-0.4585
0.023,-0.0735,-0.4535
0.026,-0.0715,-0.451
0.026,-0.067,-0.4465
0.0245,-0.063,-0.44
0.0265,-0.059,-0.4375
0.028,-0.053,-0.436
0.028,-0.0505,-0.4305
0.0275,-0.0475,-0.428
0.0225,-0.044,-0.4245
0.0225,-0.0395,-0.42
0.0245,-0.0345,-0.415
0.023,-0.0315,-0.4115
0.0285,-0.027,-0.4115
0.035,-0.0225,-0.411
0.0375,-0.019,-0.409
0.041,-0.014,-0.407
0.046,-0.0095,-0.404
0.048,-0.0035,-0.3975
0.0495,0.0015,-0.396
0.0525,0.008,-0.394
0.053,0.0115,-0.39
0.0545,0.016,-0.386
0.0545,0.0225,-0.3795
0.055,0.0275,-0.372
0.0595,0.033,-0.3695
0.0605,0.0375,-0.37
0.0615,0.0415,-0.365
0.0625,0.046,-0.363
0.064,0.05,-0.36
0.064,0.056,-0.354
0.063,0.061,-0.3495
0.0675,0.067,-0.343
0.07,0.0735,-0.342
0.074,0.079,-0.338
0.0755,0.085,-0.334
0.07,0.083,-0.3355
0.0665,0.085,-0.336
0.0655,0.091,-0.3375
0.068,0.0935,-0.3345
0.069,0.097,-0.3315
0.0695,0.1005,-0.327
0.0725,0.104,-0.323
0.071,0.1065,-0.32
