i,vx,vy
-0.1775,0.0705,0.213
-0.1715,0.0685,0.2135
-0.174,0.0615,0.214
-0.1735,0.0625,0.215
-0.17,0.0645,0.2165
-0.167,0.065,0.2165
-0.1625,0.065,0.2135
-0.1625,0.065,0.2135
-0.164,0.066,0.219
-0.1655,0.0645,0.2265
-0.171,0.0625,0.23
-0.171,0.0645,0.2235
-0.165,0.068,0.2275
-0.1605,0.071,0.2305
-0.1635,0.071,0.224
-0.168,0.0665,0.2235
-0.169,0.0665,0.224
-0.1705,0.069,0.2225
-0.1725,0.0685,0.2175
-0.1735,0.067,0.2155
-0.1735,0.068,0.2195
-0.1715,0.071,0.2215
-0.17,0.0685,0.221
-0.1755,0.065,0.217
-0.1785,0.0655,0.209
-0.178,0.0665,0.21
-0.1795,0.0625,0.2125
-0.1795,0.061,0.211
-0.173,0.064,0.2145
-0.171,0.066,0.214
-0.17,0.0625,0.223
-0.1645,0.0615,0.233
-0.169,0.065,0.2335
-0.1675,0.065,0.234
-0.171,0.065,0.229
-0.181,0.061,0.2215
-0.1775,0.0595,0.216
-0.1745,0.063,0.2155
-0.1665,0.065,0.217
-0.164,0.0655,0.214
-0.1705,0.0635,0.208
-0.1695,0.063,0.2105
-0.172,0.0635,0.2115
-0.1755,0.064,0.2085
-0.171,0.0625,0.2115
-0.166,0.0635,0.2175
-0.1705,0.0655,0.2205
-0.1775,0.061,0.213
-0.175,0.062,0.212
-0.1725,0.0655,0.222
-0.1775,0.063,0.2245
-0.1745,0.064,0.2225
-0.1675,0.0655,0.2245
-0.1685,0.0625,0.2225
-0.171,0.061,0.222
-0.1705,0.06,0.2255
-0.17,0.059,0.229
-0.1695,0.0595,0.226
-0.168,0.064,0.2205
-0.1695,0.066,0.2195
-0.1755,0.064,0.2195
-0.18,0.0615,0.2235
-0.176,0.061,0.221
-0.175,0.061,0.217
-0.173,0.061,0.218
-0.1675,0.0605,0.22
-0.1715,0.0595,0.2185
-0.179,0.056,0.214
-0.181,0.0545,0.215
-0.175,0.0565,0.2155
-0.1665,0.057,0.215
-0.169,0.056,0.2145
-0.1775,0.0535,0.219
-0.183,0.053,0.2225
-0.1805,0.0555,0.222
-0.1755,0.056,0.2255
-0.1815,0.052,0.227
-0.1795,0.054,0.2275
-0.1735,0.0565,0.2255
-0.175,0.0565,0.22
-0.176,0.0575,0.2205
-0.17,0.0545,0.222
-0.1715,0.056,0.217
-0.1725,0.0585,0.2105
-0.1735,0.0565,0.205
-0.1795,0.055,0.204
-0.1785,0.055,0.2015
-0.183,0.0545,0.2035
-0.1825,0.0545,0.2055
-0.1815,0.054,0.209
-0.1775,0.0545,0.216
-0.173,0.058,0.2175
-0.177,0.056,0.214
-0.178,0.0545,0.211
-0.1775,0.0525,0.211
-0.177,0.0505,0.211
-0.177,0.053,0.208
-0.179,0.0535,0.208
-0.178,0.054,0.2075
-0.1785,0.054,0.199
-0.1835,0.0525,0.1975
-0.1835,0.052,0.193
-0.1835,0.052,0.1915
-0.182,0.053,0.198
-0.181,0.0515,0.1955
-0.184,0.049,0.199
-0.185,0.0475,0.198
-0.179,0.046,0.196
-0.1745,0.0465,0.2015
-0.1745,0.047,0.203
-0.179,0.044,0.2055
-0.1855,0.0415,0.204
-0.185,0.0425,0.2035
-0.1835,0.0415,0.206
-0.181,0.043,0.1995
-0.1805,0.044,0.201
-0.1755,0.044,0.2115
-0.17,0.0455,0.212
-0.176,0.0455,0.2085
-0.18,0.043,0.2095
-0.181,0.043,0.209
-0.185,0.043,0.2005
-0.188,0.0395,0.198
-0.19,0.0405,0.2005
-0.1925,0.04,0.197
-0.191,0.04,0.1975
-0.1905,0.042,0.1975
-0.1915,0.039,0.2005
-0.194,0.0355,0.2095
-0.1925,0.037,0.209
-0.1885,0.039,0.2085
-0.1905,0.0395,0.202
-0.1905,0.039,0.198
-0.188,0.0385,0.2025
-0.187,0.04,0.201
-0.1865,0.039,0.2005
-0.186,0.038,0.2
-0.187,0.04,0.2025
-0.183,0.041,0.1995
-0.1825,0.0405,0.1945
-0.186,0.042,0.1965
-0.1905,0.0395,0.2
-0.194,0.036,0.2035
-0.1975,0.036,0.2035
-0.187,0.041,0.2085
-0.1755,0.0455,0.2085
-0.171,0.048,0.2035
-0.1645,0.0515,0.201
-0.1705,0.0455,0.197
-0.174,0.0445,0.1975
-0.165,0.0445,0.1965
-0.162,0.043,0.1965
-0.1655,0.0435,0.196
-0.1655,0.041,0.1985
-0.173,0.04,0.199
-0.17,0.039,0.1945
-0.168,0.04,0.197
-0.1745,0.038,0.198
-0.1745,0.0375,0.1965
-0.1745,0.0355,0.199
-0.1725,0.033,0.198
-0.1715,0.036,0.192
-0.1615,0.0375,0.196
-0.1595,0.0375,0.193
-0.1645,0.034,0.1925
-0.161,0.036,0.1965
-0.161,0.035,0.1915
-0.1645,0.0315,0.1935
-0.1675,0.0305,0.2
-0.169,0.0285,0.197
-0.1705,0.0285,0.192
-0.168,0.03,0.195
-0.1685,0.03,0.1945
-0.176,0.026,0.192
-0.1715,0.0255,0.1955
-0.1645,0.026,0.203
-0.17,0.03,0.2005
-0.172,0.033,0.2025
-0.166,0.0345,0.2055
-0.164,0.0375,0.2015
-0.17,0.034,0.199
-0.167,0.035,0.2
-0.159,0.036,0.203
-0.1605,0.037,0.196
-0.1615,0.038,0.2
-0.166,0.0355,0.2065
-0.1635,0.036,0.2085
-0.158,0.0385,0.205
-0.165,0.036,0.198
-0.1705,0.0335,0.2005
-0.168,0.033,0.1975
-0.1635,0.0335,0.201
-0.1645,0.0365,0.193
-0.1695,0.0395,0.184
-0.1665,0.0425,0.187
-0.155,0.0425,0.183
-0.154,0.0445,0.186
-0.1615,0.042,0.1875
-0.161,0.039,0.186
-0.1605,0.041,0.186
-0.158,0.0395,0.179
-0.161,0.038,0.1815
-0.165,0.036,0.1895
-0.158,0.0375,0.188
-0.154,0.0395,0.192
-0.154,0.0395,0.1925
-0.1545,0.0395,0.1885
-0.1575,0.0385,0.1805
-0.1655,0.0345,0.179
-0.164,0.036,0.1815
-0.1625,0.0385,0.1815
-0.1665,0.0365,0.1845
-0.161,0.0385,0.1875
-0.1605,0.038,0.1955
-0.166,0.0355,0.195
-0.166,0.0335,0.194
-0.161,0.034,0.195
-0.1585,0.038,0.1955
-0.1605,0.0365,0.1985
-0.1645,0.0345,0.196
-0.161,0.0365,0.1925
-0.1585,0.0355,0.19
-0.16,0.033,0.194
-0.1595,0.032,0.1975
-0.1575,0.032,0.1895
-0.1525,0.0325,0.1835
-0.1445,0.035,0.1885
-0.144,0.0355,0.1905
-0.1495,0.035,0.1905
-0.1555,0.034,0.194
-0.167,0.032,0.1905
-0.165,0.0345,0.189
-0.1585,0.038,0.1955
-0.1575,0.0365,0.1995
-0.1585,0.036,0.197
-0.1625,0.0355,0.1975
-0.163,0.0345,0.1985
-0.1615,0.0345,0.1955
-0.1575,0.0345,0.194
-0.151,0.0375,0.193
-0.149,0.036,0.1925
-0.155,0.0325,0.1885
-0.155,0.03,0.1935
-0.1545,0.031,0.198
-0.159,0.033,0.191
-0.1615,0.031,0.1855
-0.1625,0.0305,0.186
-0.1615,0.0295,0.1915
-0.1575,0.029,0.19
-0.159,0.0295,0.194
-0.163,0.0275,0.1955
-0.157,0.03,0.193
-0.1595,0.0335,0.1935
-0.16,0.033,0.191
-0.157,0.032,0.1945
-0.1595,0.033,0.1985
-0.157,0.033,0.2
-0.1575,0.035,0.197
-0.159,0.0355,0.1975
-0.163,0.033,0.194
-0.164,0.033,0.1915
-0.161,0.0335,0.1905
-0.161,0.0355,0.1875
-0.16,0.037,0.1835
-0.158,0.0375,0.1845
-0.1555,0.0395,0.188
-0.153,0.0385,0.1865
-0.1495,0.038,0.187
-0.151,0.0375,0.1885
-0.1545,0.036,0.195
-0.1535,0.0355,0.193
-0.1575,0.036,0.193
-0.1615,0.0365,0.1965
-0.1605,0.036,0.196
-0.161,0.034,0.1975
-0.161,0.0355,0.194
-0.156,0.0395,0.1945
-0.1545,0.039,0.2025
-0.161,0.0325,0.208
-0.1595,0.0325,0.2085
-0.1525,0.0375,0.2115
-0.1525,0.0375,0.214
-0.152,0.0365,0.2095
-0.1555,0.0355,0.2015
-0.163,0.034,0.1955
-0.1595,0.035,0.193
-0.154,0.0345,0.183
-0.1575,0.033,0.1795
-0.1585,0.032,0.177
-0.1575,0.0335,0.169
-0.158,0.0355,0.174
-0.1545,0.0375,0.176
-0.151,0.0395,0.171
-0.1565,0.04,0.1695
-0.1565,0.041,0.1735
-0.146,0.044,0.179
-0.136,0.049,0.182
-0.1345,0.052,0.182
-0.1375,0.0535,0.18
-0.131,0.059,0.1865
-0.1275,0.063,0.1965
-0.127,0.0625,0.2005
-0.121,0.067,0.201
-0.1165,0.0765,0.2045
-0.121,0.0815,0.2085
-0.1265,0.08,0.2145
-0.126,0.08,0.219
-0.12,0.084,0.222
-0.1155,0.087,0.23
-0.11,0.09,0.231
-0.1065,0.0945,0.228
-0.109,0.098,0.23
-0.103,0.105,0.2295
-0.0975,0.1085,0.228
-0.0965,0.108,0.2315
-0.0955,0.112,0.232
-0.0945,0.112,0.233
-0.096,0.1095,0.2355
-0.099,0.1075,0.23
-0.101,0.1045,0.2235
-0.103,0.106,0.2175
-0.107,0.103,0.2135
-0.1075,0.101,0.211
-0.1055,0.103,0.2125
-0.106,0.104,0.2125
-0.1055,0.108,0.208
-0.1085,0.108,0.21
-0.109,0.1085,0.213
-0.1035,0.111,0.209
-0.103,0.109,0.208
-0.098,0.1085,0.2095
-0.092,0.1115,0.2065
-0.089,0.1105,0.2065
-0.0915,0.11,0.207
-0.0955,0.1095,0.208
-0.094,0.108,0.2045
-0.0985,0.108,0.203
-0.103,0.103,0.2035
-0.1055,0.0995,0.197
-0.106,0.096,0.1965
-0.108,0.0905,0.196
-0.118,0.084,0.1965
-0.1265,0.0805,0.1985
-0.1245,0.078,0.2025
-0.1265,0.0755,0.204
-0.1305,0.075,0.2025
-0.126,0.075,0.2035
-0.1275,0.071,0.205
-0.128,0.0675,0.212
-0.1275,0.0665,0.2105
-0.126,0.0645,0.206
-0.124,0.065,0.209
-0.1265,0.065,0.2105
-0.1275,0.0635,0.202
-0.1235,0.0665,0.1995
-0.1155,0.0715,0.203
-0.108,0.072,0.2
-0.1075,0.0775,0.1985
-0.1115,0.0815,0.198
-0.112,0.0795,0.194
-0.109,0.0795,0.2005
-0.1075,0.079,0.2055
-0.101,0.081,0.205
-0.094,0.0815,0.21
-0.101,0.0805,0.203
-0.1065,0.0795,0.196
-0.1085,0.075,0.1925
-0.1095,0.074,0.1865
-0.1045,0.074,0.186
-0.107,0.0685,0.1915
-0.108,0.0675,0.1955
-0.1085,0.0675,0.1895
-0.114,0.0675,0.183
-0.106,0.0685,0.18
-0.109,0.063,0.182
-0.1175,0.059,0.184
-0.116,0.06,0.18
-0.119,0.058,0.1795
-0.1235,0.0545,0.178
-0.1305,0.05,0.172
-0.14,0.045,0.1695
-0.1465,0.04,0.168
-0.159,0.0305,0.166
-0.172,0.0205,0.154
-0.1765,0.017,0.156
-0.1735,0.017,0.1665
-0.167,0.0175,0.1605
-0.1695,0.018,0.162
-0.175,0.0155,0.1675
-0.178,0.014,0.172
-0.178,0.0175,0.1785
-0.1845,0.0165,0.184
-0.188,0.0165,0.1825
-0.1795,0.02,0.1825
-0.1815,0.02,0.1875
-0.183,0.0195,0.1835
-0.18,0.0185,0.178
-0.184,0.0195,0.1745
-0.1845,0.021,0.1725
-0.178,0.0245,0.169
-0.177,0.026,0.171
-0.1795,0.023,0.1725
-0.1725,0.025,0.168
-0.1685,0.025,0.1705
-0.179,0.0275,0.17
-0.187,0.024,0.169
-0.183,0.0195,0.1705
-0.181,0.0225,0.167
-0.1845,0.0215,0.1695
-0.183,0.0235,0.1735
-0.1795,0.0235,0.1785
-0.1755,0.0265,0.18
-0.1775,0.028,0.1785
-0.1795,0.028,0.1815
-0.171,0.0325,0.1825
-0.169,0.034,0.1785
-0.171,0.034,0.1775
-0.1715,0.0305,0.1795
-0.175,0.0295,0.1795
-0.1745,0.027,0.185
-0.176,0.0255,0.1905
-0.177,0.0275,0.186
-0.1705,0.028,0.1875
-0.1755,0.026,0.1865
-0.1815,0.023,0.1815
-0.1745,0.026,0.1845
-0.1735,0.0235,0.184
-0.174,0.023,0.1825
-0.176,0.0215,0.1825
-0.172,0.021,0.192
-0.1645,0.0245,0.198
-0.168,0.022,0.1975
-0.1715,0.023,0.2015
-0.173,0.0235,0.195
-0.1755,0.023,0.1905
-0.179,0.0245,0.1955
-0.1815,0.0235,0.1955
-0.183,0.024,0.196
-0.176,0.0275,0.1965
-0.1805,0.026,0.191
-0.1805,0.03,0.19
-0.1735,0.0315,0.19
-0.177,0.027,0.19
-0.1705,0.03,0.1925
-0.1755,0.032,0.1925
-0.18,0.033,0.196
-0.1805,0.0295,0.1955
-0.1855,0.0245,0.19
-0.1875,0.025,0.1945
-0.186,0.0245,0.2015
-0.183,0.0235,0.2065
-0.1865,0.0205,0.205
-0.1865,0.016,0.2015
-0.1895,0.009,0.2025
-0.1985,0.0015,0.2025
-0.21,-0.0095,0.2085
-0.218,-0.0195,0.214
-0.2235,-0.03,0.2165
-0.2345,-0.043,0.2195
-0.2495,-0.054,0.217
-0.264,-0.067,0.215
-0.2665,-0.0795,0.2125
-0.2685,-0.0925,0.206
-0.2695,-0.107,0.198
-0.2805,-0.1255,0.186
-0.286,-0.14,0.174
-0.2815,-0.1445,0.1635
-0.289,-0.1485,0.1565
-0.287,-0.1475,0.1535
-0.291,-0.14,0.16
-0.286,-0.127,0.1665
-0.259,-0.099,0.1695
-0.233,-0.0665,0.1855
-0.2055,-0.0285,0.2085
-0.1725,0.02,0.221
-0.1225,0.085,0.2295
-0.0755,0.146,0.2435
-0.023,0.2105,0.2535
0.036,0.289,0.267
0.0785,0.353,0.2805
0.1205,0.4215,0.2935
0.1805,0.512,0.3285
0.2405,0.618,0.3765
0.285,0.7145,0.429
0.334,0.812,0.503
0.3735,0.908,0.5745
0.4055,0.991,0.6495
0.433,1.0695,0.7365
0.46,1.151,0.8135
0.4855,1.227,0.8885
0.4975,1.295,0.9635
0.5095,1.3555,1.022
0.5175,1.4195,1.099
0.532,1.4965,1.173
0.5325,1.544,1.204
0.508,1.5605,1.234
0.4855,1.5465,1.231
0.447,1.504,1.205
0.395,1.4315,1.161
0.3535,1.3415,1.0965
0.3315,1.2575,1.0005
0.31,1.1735,0.886
0.2725,1.094,0.8245
0.236,1.0195,0.7845
0.203,0.957,0.76
0.172,0.899,0.746
0.1415,0.832,0.722
0.0975,0.75,0.6965
0.042,0.656,0.6585
-0.013,0.5535,0.617
-0.0665,0.4495,0.592
-0.0985,0.3665,0.564
-0.1235,0.282,0.533
-0.1615,0.196,0.4905
-0.199,0.108,0.4345
-0.233,0.0405,0.391
-0.2485,0.009,0.3585
-0.249,-0.019,0.333
-0.24,-0.033,0.296
-0.242,-0.056,0.2475
-0.244,-0.09,0.211
-0.2495,-0.113,0.191
-0.2605,-0.133,0.169
-0.2495,-0.1375,0.1455
-0.2465,-0.1325,0.137
-0.244,-0.123,0.129
-0.2305,-0.1045,0.1245
-0.2155,-0.09,0.125
-0.21,-0.079,0.129
-0.203,-0.0665,0.14
-0.193,-0.0535,0.1535
-0.197,-0.042,0.1665
-0.195,-0.032,0.171
-0.192,-0.024,0.1735
-0.187,-0.017,0.182
-0.1805,-0.0055,0.193
-0.175,0.0085,0.2015
-0.17,0.0195,0.211
-0.1715,0.0285,0.227
-0.1685,0.038,0.2415
-0.161,0.048,0.251
-0.152,0.0545,0.2545
-0.1485,0.058,0.2565
-0.156,0.058,0.2625
-0.1525,0.0585,0.2595
-0.1485,0.058,0.259
-0.1515,0.06,0.2545
-0.156,0.0565,0.256
-0.1585,0.0505,0.2615
-0.152,0.0595,0.2525
-0.152,0.0625,0.245
-0.153,0.062,0.245
-0.1485,0.0655,0.2535
-0.1515,0.0655,0.2505
-0.1505,0.068,0.245
-0.151,0.069,0.249
-0.1515,0.068,0.254
-0.147,0.07,0.2555
-0.153,0.068,0.254
-0.154,0.0675,0.253
-0.148,0.07,0.252
-0.145,0.0705,0.2525
-0.1485,0.0695,0.251
-0.156,0.0675,0.2495
-0.1525,0.07,0.2545
-0.1385,0.0765,0.2585
-0.138,0.0785,0.2515
-0.1405,0.0765,0.2545
-0.144,0.077,0.2565
-0.14,0.077,0.255
-0.132,0.0805,0.257
-0.132,0.084,0.261
-0.1315,0.08,0.2635
-0.1395,0.076,0.257
-0.139,0.0765,0.259
-0.1385,0.078,0.2585
-0.141,0.079,0.2515
-0.138,0.0805,0.2535
-0.1365,0.081,0.2555
-0.1365,0.082,0.247
-0.129,0.0845,0.2505
-0.134,0.0845,0.251
-0.149,0.0805,0.2445
-0.1445,0.079,0.2485
-0.133,0.086,0.247
-0.1315,0.087,0.249
-0.1385,0.0855,0.2515
-0.134,0.091,0.2515
-0.1365,0.09,0.253
-0.139,0.087,0.258
-0.1355,0.087,0.259
-0.134,0.09,0.2525
-0.126,0.0955,0.261
-0.1265,0.0945,0.269
-0.134,0.093,0.2665
-0.138,0.094,0.262
-0.133,0.0955,0.266
-0.1275,0.0985,0.272
-0.1295,0.0995,0.264
-0.127,0.1,0.263
-0.124,0.102,0.2645
-0.1215,0.103,0.2615
-0.114,0.1025,0.2635
-0.1155,0.103,0.264
-0.1215,0.1095,0.261
-0.123,0.1125,0.2595
-0.123,0.1115,0.257
-0.1235,0.1135,0.253
-0.121,0.113,0.254
-0.1195,0.111,0.2585
-0.1235,0.1105,0.26
-0.1205,0.114,0.258
-0.114,0.1165,0.2565
-0.113,0.117,0.267
-0.109,0.121,0.2675
-0.1085,0.124,0.2565
-0.112,0.1265,0.2605
-0.115,0.1255,0.259
-0.119,0.123,0.2635
-0.1135,0.126,0.265
-0.1075,0.129,0.255
-0.1035,0.1295,0.2585
-0.112,0.1285,0.2565
-0.118,0.129,0.256
-0.1095,0.1315,0.261
-0.1045,0.1335,0.268
-0.106,0.1325,0.2685
-0.105,0.135,0.262
-0.1025,0.135,0.2685
-0.107,0.132,0.268
-0.1015,0.136,0.267
-0.095,0.1385,0.272
-0.099,0.14,0.271
-0.0995,0.1415,0.275
-0.094,0.142,0.277
-0.095,0.1435,0.2725
-0.0965,0.147,0.2655
-0.0955,0.148,0.26
-0.099,0.1475,0.2605
-0.0965,0.1525,0.259
-0.095,0.155,0.2545
-0.0945,0.1555,0.256
-0.092,0.1565,0.258
-0.093,0.16,0.2575
-0.085,0.166,0.2595
-0.079,0.169,0.268
-0.086,0.1675,0.2755
-0.089,0.167,0.277
-0.082,0.17,0.2795
-0.076,0.1725,0.2785
-0.0755,0.177,0.272
-0.0705,0.1805,0.2735
-0.068,0.181,0.27
-0.071,0.1825,0.266
-0.0675,0.184,0.274
-0.0695,0.1835,0.275
-0.072,0.1865,0.2805
-0.069,0.1925,0.2895
-0.068,0.197,0.2855
-0.063,0.1985,0.283
-0.0575,0.1995,0.2865
-0.0565,0.202,0.2875
-0.0565,0.2035,0.285
-0.059,0.2035,0.2835
-0.0555,0.206,0.2825
-0.0515,0.2095,0.2855
-0.0455,0.2165,0.288
-0.034,0.223,0.2855
-0.036,0.225,0.283
-0.0345,0.23,0.289
-0.03,0.2305,0.293
-0.0385,0.2305,0.294
-0.0425,0.236,0.2965
-0.0315,0.2415,0.2955
-0.0225,0.2465,0.2995
-0.0245,0.2485,0.3025
-0.0265,0.25,0.306
-0.025,0.2515,0.3095
-0.017,0.258,0.313
-0.0105,0.263,0.3145
-0.0075,0.264,0.308
-0.007,0.267,0.3115
-0.005,0.2685,0.3135
0.001,0.274,0.3115
0.001,0.2775,0.3115
0.001,0.2775,0.315
0.0055,0.2845,0.311
0.015,0.2935,0.3145
0.0185,0.298,0.3245
0.016,0.301,0.327
0.017,0.3055,0.331
0.015,0.3095,0.324
0.0095,0.309,0.33
0.016,0.3145,0.3325
0.0285,0.322,0.3305
0.0305,0.3255,0.3325
0.032,0.33,0.333
0.033,0.3345,0.3355
0.034,0.3405,0.328
0.0315,0.341,0.3295
0.0375,0.346,0.326
0.051,0.355,0.3215
0.057,0.362,0.3275
0.0585,0.365,0.332
0.057,0.366,0.333
0.06,0.371,0.3335
0.0585,0.3755,0.3375
0.057,0.379,0.336
0.0675,0.3805,0.339
0.073,0.385,0.3435
0.0725,0.3915,0.3465
0.0745,0.397,0.346
0.074,0.399,0.3475
0.0775,0.397,0.349
0.0765,0.398,0.344
0.0745,0.4025,0.3505
0.0775,0.4045,0.356
0.0815,0.4075,0.362
0.086,0.413,0.3625
0.0835,0.4155,0.357
0.087,0.419,0.3595
0.093,0.42,0.3635
0.0905,0.4215,0.3645
0.095,0.424,0.363
0.095,0.4265,0.363
0.091,0.427,0.3615
0.09,0.4265,0.364
0.087,0.427,0.364
0.09,0.4255,0.364
0.093,0.4265,0.369
0.0985,0.4305,0.374
0.1035,0.433,0.3785
0.102,0.435,0.3835
0.0925,0.4345,0.3845
0.085,0.4315,0.3815
0.0985,0.436,0.3815
0.1005,0.4375,0.3805
0.094,0.4375,0.384
0.092,0.44,0.379
0.0935,0.4405,0.376
0.0995,0.4435,0.378
0.0975,0.44,0.375
0.109,0.441,0.3755
0.1075,0.4405,0.3715
0.0975,0.434,0.3725
0.095,0.43,0.3815
0.0925,0.4295,0.381
0.0905,0.428,0.374
0.081,0.4195,0.3785
0.082,0.418,0.3895
0.077,0.4165,0.3865
0.079,0.4155,0.3825
0.0855,0.414,0.384
0.0715,0.4045,0.378
0.0575,0.399,0.373
0.0575,0.399,0.372
0.0625,0.398,0.371
0.065,0.395,0.3715
0.0625,0.389,0.3725
0.0525,0.3805,0.367
0.0415,0.374,0.361
0.0345,0.3675,0.3585
0.0375,0.363,0.3505
0.0355,0.3585,0.3525
0.03,0.3485,0.356
0.0265,0.34,0.3525
0.0215,0.334,0.3465
0.0255,0.3295,0.3435
0.022,0.3245,0.3485
0.0125,0.3135,0.3455
0.0055,0.304,0.3345
-0.009,0.296,0.3345
-0.019,0.2875,0.336
-0.027,0.281,0.332
-0.029,0.2735,0.3245
-0.0235,0.267,0.3245
-0.0245,0.2605,0.3285
-0.031,0.2535,0.3175
-0.038,0.248,0.31
-0.04,0.245,0.3105
-0.0435,0.24,0.303
-0.0495,0.2295,0.297
-0.056,0.223,0.2895
-0.06,0.2205,0.285
-0.06,0.2155,0.2915
-0.065,0.2085,0.29
-0.0625,0.2045,0.28
-0.0635,0.2,0.276
-0.0715,0.192,0.2775
-0.0825,0.1855,0.2765
-0.086,0.182,0.277
-0.082,0.1785,0.274
-0.0915,0.17,0.27
-0.089,0.165,0.263
-0.084,0.1625,0.2575
-0.0845,0.1585,0.2625
-0.0895,0.155,0.265
-0.0955,0.1505,0.262
-0.0925,0.1485,0.2565
-0.0965,0.1435,0.252
-0.102,0.1395,0.249
-0.105,0.1385,0.247
-0.108,0.131,0.2435
-0.1125,0.128,0.2425
-0.114,0.126,0.242
-0.1165,0.121,0.238
-0.1135,0.123,0.2335
-0.1115,0.1215,0.2335
-0.1215,0.1185,0.2325
-0.122,0.1165,0.23
-0.1195,0.1195,0.2275
-0.13,0.117,0.2275
-0.132,0.1155,0.227
-0.126,0.119,0.2225
-0.1285,0.1135,0.226
-0.1305,0.1145,0.226
-0.1265,0.115,0.2295
-0.1255,0.111,0.2315
-0.1225,0.1105,0.2275
-0.122,0.11,0.2255
-0.1225,0.109,0.2215
-0.12,0.1065,0.221
-0.1225,0.105,0.2195
-0.12,0.1035,0.221
-0.1265,0.1025,0.222
-0.1295,0.1035,0.2195
-0.1265,0.102,0.2205
-0.124,0.0995,0.2275
-0.1235,0.0985,0.2265
-0.132,0.096,0.2235
-0.131,0.095,0.221
-0.1315,0.0955,0.216
-0.1275,0.098,0.2235
-0.1285,0.0975,0.2235
-0.135,0.096,0.2165
-0.1335,0.097,0.213
-0.135,0.096,0.214
-0.138,0.096,0.2125
-0.1335,0.0965,0.2095
-0.128,0.0975,0.21
-0.1295,0.097,0.2125
-0.127,0.0965,0.216
-0.1265,0.0975,0.21
-0.133,0.0935,0.207
-0.131,0.0945,0.211
-0.13,0.094,0.2115
-0.136,0.0895,0.2105
-0.1335,0.09,0.208
-0.13,0.089,0.2075
-0.132,0.0885,0.209
-0.133,0.0915,0.2065
-0.133,0.0925,0.215
-0.1335,0.093,0.224
-0.132,0.094,0.2265
-0.132,0.094,0.2275
-0.131,0.0955,0.227
-0.1295,0.0975,0.2275
-0.13,0.097,0.227
-0.1265,0.0975,0.231
-0.127,0.0995,0.232
-0.128,0.0985,0.227
-0.125,0.097,0.2205
-0.1215,0.098,0.216
-0.123,0.0985,0.221
-0.1255,0.0975,0.22
-0.123,0.1005,0.2125
-0.121,0.102,0.214
-0.124,0.0995,0.2135
-0.1255,0.1,0.2175
-0.124,0.1,0.224
-0.1265,0.0975,0.224
-0.1245,0.0995,0.222
-0.1275,0.101,0.2235
-0.134,0.102,0.2215
-0.1345,0.1015,0.2135
-0.134,0.0985,0.2115
-0.134,0.099,0.2105
-0.1335,0.101,0.21
-0.1315,0.1035,0.2125
-0.1255,0.1055,0.212
-0.123,0.1065,0.213
-0.125,0.1045,0.2165
-0.1215,0.106,0.2155
-0.1195,0.108,0.2215
-0.125,0.1065,0.226
-0.1315,0.105,0.2265
-0.129,0.1045,0.2265
-0.126,0.104,0.2195
-0.126,0.106,0.217
-0.1255,0.1065,0.223
-0.1285,0.105,0.229
-0.13,0.106,0.228
-0.128,0.107,0.228
-0.1235,0.108,0.2285
-0.1265,0.108,0.225
-0.136,0.1045,0.22
-0.137,0.1045,0.2235
-0.134,0.106,0.2285
-0.1345,0.104,0.2245
-0.133,0.1065,0.2235
-0.125,0.109,0.224
-0.125,0.111,0.225
-0.125,0.11,0.2255
-0.125,0.1085,0.22
-0.126,0.1105,0.223
-0.128,0.1115,0.2275
-0.1285,0.1115,0.226
-0.1255,0.1125,0.221
-0.125,0.112,0.221
-0.123,0.112,0.229
-0.125,0.1095,0.229
-0.1265,0.107,0.227
-0.129,0.1085,0.2305
-0.131,0.1085,0.232
-0.1325,0.1095,0.231
-0.1325,0.1065,0.23
-0.124,0.1075,0.234
-0.1225,0.108,0.235
-0.123,0.106,0.234
-0.124,0.1035,0.2305
-0.129,0.101,0.226
-0.1295,0.1005,0.228
-0.127,0.0985,0.2305
-0.123,0.1025,0.2325
-0.125,0.104,0.2285
-0.1235,0.1035,0.227
-0.1205,0.105,0.2295
-0.124,0.1045,0.227
-0.122,0.107,0.2265
-0.126,0.1065,0.2275
-0.123,0.106,0.23
-0.12,0.107,0.2315
-0.126,0.1045,0.2305
-0.1165,0.105,0.228
-0.117,0.105,0.2215
-0.126,0.1035,0.223
-0.1235,0.1035,0.2295
-0.1255,0.103,0.2295
-0.123,0.105,0.227
-0.119,0.1055,0.2225
-0.125,0.104,0.2245
-0.128,0.1035,0.227
-0.127,0.1025,0.2255
-0.1265,0.1025,0.227
-0.129,0.1015,0.2295
-0.1295,0.1015,0.231
-0.1275,0.103,0.226
-0.127,0.1015,0.2245
-0.1245,0.1005,0.2295
-0.1235,0.1005,0.2305
-0.1255,0.1,0.2295
-0.1325,0.1,0.225
-0.1345,0.1005,0.2225
-0.1315,0.101,0.222
-0.127,0.102,0.224
-0.1225,0.1055,0.2245
-0.126,0.105,0.221
-0.127,0.103,0.222
-0.131,0.102,0.221
-0.126,0.103,0.226
-0.1195,0.1055,0.2335
-0.1265,0.1035,0.2285
-0.1275,0.101,0.219
-0.127,0.101,0.2175
-0.1275,0.1,0.2165
-0.133,0.098,0.213
-0.1285,0.0985,0.2165
-0.119,0.1035,0.2185
-0.1195,0.101,0.2175
-0.1215,0.096,0.2225
-0.121,0.098,0.227
-0.1255,0.0955,0.2225
-0.1285,0.095,0.222
-0.127,0.095,0.226
-0.1295,0.0945,0.2245
-0.129,0.0955,0.2215
-0.127,0.0935,0.2205
-0.1225,0.0965,0.218
-0.124,0.0965,0.22
-0.129,0.0905,0.22
-0.1275,0.09,0.211
-0.1265,0.09,0.2135
-0.1295,0.088,0.2165
-0.132,0.088,0.216
-0.131,0.0885,0.219
-0.1295,0.091,0.217
-0.1315,0.0905,0.214
-0.1365,0.0875,0.2095
-0.137,0.087,0.2095
-0.1335,0.088,0.2135
-0.1335,0.0875,0.215
-0.131,0.0875,0.213
-0.133,0.088,0.213
-0.1355,0.089,0.2115
-0.1345,0.089,0.2055
-0.1425,0.0865,0.2065
-0.14,0.0885,0.2115
-0.133,0.09,0.215
-0.1345,0.0885,0.2115
-0.136,0.0895,0.205
-0.1345,0.0915,0.202
-0.1335,0.092,0.2
-0.1355,0.09,0.202
-0.138,0.0885,0.2035
-0.135,0.088,0.197
-0.1315,0.088,0.199
-0.1335,0.088,0.2025
-0.13,0.089,0.2035
-0.1315,0.0885,0.2045
-0.1325,0.0855,0.201
-0.133,0.085,0.2075
-0.1335,0.0885,0.213
-0.1275,0.0915,0.2105
-0.1305,0.0895,0.2065
-0.136,0.0865,0.2055
-0.1355,0.0865,0.2055
-0.1395,0.0825,0.204
-0.147,0.0805,0.206
-0.1455,0.083,0.2055
-0.141,0.083,0.207
-0.143,0.0805,0.207
-0.142,0.077,0.2025
-0.1395,0.0785,0.1985
-0.1405,0.0775,0.1995
-0.139,0.077,0.2025
-0.134,0.0805,0.204
-0.128,0.0825,0.207
-0.1255,0.0815,0.2015
-0.129,0.081,0.198
-0.1305,0.08,0.2045
-0.13,0.079,0.2045
-0.131,0.082,0.204
-0.128,0.0835,0.203
-0.1305,0.0815,0.1995
-0.1355,0.081,0.205
-0.141,0.08,0.209
-0.1465,0.0785,0.2085
-0.1465,0.079,0.208
-0.1465,0.0795,0.206
-0.143,0.083,0.202
-0.14,0.0825,0.1995
-0.1345,0.0835,0.2055
-0.133,0.0845,0.2075
-0.1375,0.0805,0.208
-0.1345,0.0835,0.2125
-0.1335,0.085,0.216
-0.1395,0.083,0.213
-0.148,0.0785,0.207
-0.1455,0.077,0.208
-0.1435,0.0805,0.209
-0.1425,0.082,0.2085
-0.139,0.083,0.206
-0.142,0.0825,0.204
-0.1355,0.0825,0.2015
-0.1375,0.08,0.2005
-0.145,0.077,0.2
-0.1405,0.08,0.203
-0.137,0.084,0.2085
-0.1325,0.082,0.205
-0.1365,0.082,0.2
-0.1435,0.0805,0.201
-0.146,0.0775,0.199
-0.1425,0.0785,0.1925
-0.138,0.078,0.1905
-0.1405,0.0765,0.1915
-0.1455,0.074,0.19
-0.14,0.0755,0.186
-0.1355,0.0765,0.1905
-0.1385,0.0735,0.1965
-0.1345,0.0755,0.2025
-0.1325,0.0755,0.207
-0.1355,0.076,0.206
-0.137,0.076,0.2105
-0.1365,0.077,0.2065
-0.138,0.077,0.205
-0.141,0.073,0.209
-0.1375,0.074,0.207
-0.1355,0.077,0.206
-0.141,0.0775,0.2015
-0.147,0.0735,0.2015
-0.1455,0.074,0.1965
-0.144,0.0755,0.192
-0.1455,0.0745,0.197
-0.1355,0.077,0.197
-0.1335,0.0795,0.1965
-0.139,0.081,0.196
-0.136,0.0795,0.198
-0.1345,0.0785,0.198
-0.1385,0.0795,0.1975
-0.141,0.0785,0.202
-0.1405,0.0765,0.202
-0.1405,0.0775,0.2015
-0.14,0.076,0.204
-0.1395,0.0775,0.206
-0.1395,0.0785,0.204
-0.1375,0.078,0.204
-0.1405,0.079,0.2065
-0.139,0.0795,0.209
-0.1385,0.0785,0.2085
-0.14,0.079,0.2045
-0.138,0.077,0.2035
-0.142,0.073,0.2005
-0.1425,0.0745,0.2035
-0.1435,0.075,0.207
-0.1405,0.076,0.202
-0.142,0.0745,0.2
-0.1425,0.074,0.197
-0.1385,0.076,0.195
-0.1425,0.0715,0.1935
-0.1435,0.0735,0.1925
-0.143,0.074,0.193
-0.1435,0.073,0.1975
-0.1405,0.0755,0.202
-0.142,0.0745,0.1995
-0.1455,0.073,0.1975
-0.1445,0.0725,0.197
-0.1425,0.0735,0.201
-0.14,0.0745,0.2035
-0.1405,0.076,0.204
-0.1395,0.076,0.2065
-0.1375,0.0735,0.2055
-0.1375,0.072,0.201
-0.1385,0.0715,0.197
-0.144,0.072,0.2005
-0.1435,0.074,0.2
-0.142,0.074,0.2
-0.1445,0.074,0.199
-0.1405,0.0735,0.197
-0.139,0.072,0.1965
-0.1405,0.0705,0.198
-0.1405,0.069,0.1955
-0.1425,0.071,0.191
-0.138,0.0745,0.193
-0.142,0.0735,0.193
-0.1435,0.075,0.1925
-0.1365,0.0785,0.193
-0.1425,0.0765,0.1975
-0.1425,0.077,0.2
-0.1475,0.076,0.201
-0.1535,0.075,0.2055
-0.147,0.077,0.207
-0.144,0.0755,0.2055
-0.137,0.077,0.2045
-0.1375,0.079,0.2025
-0.1415,0.0825,0.2015
-0.1425,0.0795,0.2025
-0.1445,0.0765,0.203
-0.138,0.082,0.2085
-0.14,0.0805,0.2045
-0.143,0.0785,0.1955
-0.137,0.079,0.1955
-0.1375,0.0785,0.204
-0.1345,0.083,0.2095
-0.137,0.0825,0.2075
-0.1355,0.082,0.209
-0.134,0.0835,0.2025
-0.1385,0.0815,0.1985
-0.133,0.0825,0.2025
-0.139,0.0825,0.1945
-0.145,0.08,0.185
-0.14,0.0785,0.189
-0.1385,0.0765,0.192
-0.1425,0.076,0.1945
-0.142,0.077,0.192
-0.143,0.0745,0.1865
-0.1475,0.075,0.1855
-0.138,0.074,0.1905
-0.129,0.077,0.194
-0.131,0.081,0.1915
-0.129,0.079,0.1935
-0.125,0.084,0.186
-0.126,0.086,0.183
-0.1265,0.087,0.1925
-0.1235,0.0925,0.1995
-0.12,0.096,0.2095
-0.1115,0.1025,0.214
-0.101,0.1085,0.217
-0.106,0.11,0.221
-0.1095,0.113,0.2265
-0.107,0.1135,0.236
-0.108,0.117,0.242
-0.0995,0.1225,0.243
-0.101,0.123,0.2405
-0.0975,0.1285,0.2385
-0.089,0.135,0.235
-0.0835,0.1405,0.2325
-0.0735,0.146,0.237
-0.072,0.149,0.2385
-0.073,0.1515,0.236
-0.0775,0.15,0.235
-0.0825,0.149,0.2305
-0.082,0.15,0.2285
-0.082,0.15,0.2285
-0.0825,0.149,0.2255
-0.0845,0.149,0.227
-0.091,0.1475,0.2245
-0.095,0.143,0.2205
-0.0945,0.144,0.223
-0.091,0.146,0.227
-0.0875,0.147,0.222
-0.0835,0.15,0.217
-0.082,0.1485,0.218
-0.0815,0.1465,0.2155
-0.079,0.147,0.2115
-0.075,0.147,0.209
-0.072,0.1485,0.208
-0.0765,0.1465,0.202
-0.0725,0.145,0.1985
-0.0745,0.142,0.2
-0.08,0.1375,0.205
-0.08,0.136,0.2045
-0.0845,0.1345,0.197
-0.093,0.128,0.2045
-0.0955,0.123,0.208
-0.0975,0.1205,0.212
-0.1035,0.1155,0.2165
-0.1065,0.114,0.2185
-0.1105,0.11,0.225
-0.1105,0.1085,0.224
-0.111,0.109,0.222
-0.1135,0.106,0.216
-0.116,0.104,0.219
-0.1165,0.1035,0.221
-0.113,0.1045,0.214
-0.1105,0.1025,0.223
-0.1095,0.102,0.223
-0.11,0.1035,0.2135
-0.108,0.104,0.212
-0.106,0.1055,0.211
-0.0995,0.111,0.2125
-0.0925,0.114,0.2105
-0.0905,0.1165,0.2085
-0.0875,0.119,0.209
-0.087,0.1155,0.203
-0.088,0.115,0.2025
-0.086,0.1165,0.2045
-0.085,0.1145,0.209
-0.09,0.113,0.2095
-0.095,0.1135,0.207
-0.0955,0.116,0.212
-0.0915,0.1145,0.209
-0.087,0.1145,0.207
-0.088,0.1135,0.2055
-0.0935,0.111,0.202
-0.0955,0.1115,0.201
-0.0945,0.1095,0.1975
-0.0955,0.1075,0.196
-0.095,0.1065,0.195
-0.095,0.1045,0.1895
-0.097,0.102,0.1895
-0.099,0.096,0.191
-0.1045,0.093,0.1935
-0.1125,0.0895,0.195
-0.12,0.0835,0.192
-0.127,0.081,0.1935
-0.132,0.0745,0.192
-0.1405,0.067,0.1885
-0.1505,0.0625,0.1855
-0.155,0.06,0.186
-0.1565,0.0585,0.1795
-0.159,0.058,0.1755
-0.162,0.0565,0.182
-0.1645,0.0565,0.1785
-0.1635,0.059,0.179
-0.1575,0.061,0.187
-0.157,0.0605,0.187
-0.157,0.061,0.183
-0.155,0.062,0.187
-0.158,0.059,0.1895
-0.1545,0.0575,0.1885
-0.157,0.0585,0.1895
-0.157,0.059,0.19
-0.156,0.058,0.1925
-0.1595,0.055,0.192
-0.164,0.054,0.192
-0.174,0.0515,0.192
-0.1705,0.051,0.192
-0.1675,0.052,0.194
-0.1605,0.055,0.195
-0.1565,0.0575,0.1905
-0.159,0.054,0.192
-0.1595,0.0515,0.1955
-0.16,0.0505,0.196
-0.152,0.0535,0.1975
-0.1535,0.056,0.197
-0.1605,0.0535,0.199
-0.163,0.052,0.201
-0.164,0.051,0.1975
-0.1625,0.051,0.194
-0.163,0.05,0.1975
-0.1625,0.05,0.1995
-0.1595,0.053,0.2025
-0.155,0.055,0.2055
-0.1605,0.0525,0.203
-0.1595,0.0525,0.203
-0.1555,0.0565,0.198
-0.157,0.0555,0.2
-0.1565,0.0565,0.2055
-0.163,0.057,0.2035
-0.163,0.056,0.2015
-0.162,0.059,0.198
-0.1615,0.057,0.2055
-0.158,0.0575,0.206
-0.1515,0.062,0.2025
-0.153,0.062,0.2075
-0.1575,0.0625,0.205
-0.157,0.0635,0.1995
-0.1615,0.065,0.201
-0.161,0.065,0.2025
-0.161,0.065,0.202
-0.16,0.0645,0.206
-0.1585,0.063,0.208
-0.1565,0.0645,0.2115
-0.1505,0.0655,0.2105
-0.1495,0.0645,0.2095
-0.1555,0.0625,0.21
-0.1575,0.06,0.2085
-0.157,0.0595,0.2125
-0.158,0.059,0.2115
-0.159,0.059,0.2055
-0.162,0.059,0.202
-0.1645,0.055,0.201
-0.164,0.0515,0.201
-0.161,0.0505,0.207
-0.166,0.0455,0.214
-0.1755,0.0375,0.216
-0.179,0.029,0.2175
-0.1835,0.0185,0.219
-0.1925,0.009,0.2215
-0.2095,-0.004,0.2295
-0.225,-0.0175,0.242
-0.234,-0.0255,0.248
-0.2445,-0.036,0.2445
-0.2495,-0.0465,0.24
-0.2535,-0.0595,0.232
-0.264,-0.075,0.223
-0.269,-0.091,0.212
-0.2705,-0.106,0.195
-0.269,-0.111,0.1875
-0.267,-0.115,0.1845
-0.2685,-0.1195,0.175
-0.2715,-0.112,0.1795
-0.2635,-0.0975,0.186
-0.246,-0.076,0.193
-0.226,-0.045,0.2085
-0.195,-0.0015,0.2225
-0.1605,0.0485,0.233
-0.1105,0.112,0.2395
-0.0625,0.1765,0.2505
-0.0235,0.2355,0.2565
0.0335,0.309,0.27
0.0915,0.386,0.2885
0.1395,0.4595,0.314
0.191,0.5445,0.357
0.2515,0.6515,0.4045
0.3,0.751,0.463
0.342,0.844,0.531
0.3835,0.937,0.607
0.415,1.0215,0.6825
0.4365,1.0995,0.7545
0.4645,1.177,0.825
0.4885,1.2495,0.895
0.4955,1.3145,0.964
0.501,1.373,1.0245
0.516,1.4385,1.117
0.537,1.514,1.19
0.5325,1.56,1.214
0.508,1.583,1.25
0.485,1.5765,1.25
0.4505,1.538,1.232
0.4015,1.47,1.1905
0.3585,1.385,1.1195
0.3355,1.3,1.0215
0.3205,1.2165,0.911
0.2885,1.141,0.845
0.2495,1.069,0.798
0.222,1.005,0.7745
0.1955,0.9455,0.758
0.167,0.8795,0.729
0.119,0.794,0.6945
0.061,0.7025,0.657
0.01,0.6035,0.6215
-0.036,0.5025,0.593
-0.0695,0.4175,0.559
-0.1015,0.329,0.5225
-0.1345,0.2475,0.49
-0.1715,0.162,0.445
-0.209,0.084,0.4075
-0.223,0.0475,0.3775
-0.223,0.024,0.341
-0.2185,0.0085,0.306
-0.221,-0.016,0.258
-0.228,-0.0485,0.226
-0.2295,-0.0705,0.2065
-0.2315,-0.0845,0.1785
-0.2215,-0.0865,0.161
-0.214,-0.081,0.146
-0.211,-0.0725,0.1355
-0.202,-0.058,0.1335
-0.2035,-0.046,0.13
-0.2005,-0.036,0.135
-0.1895,-0.023,0.15
-0.1845,-0.014,0.1575
-0.184,-0.0035,0.166
-0.1825,0.0055,0.1825
-0.1815,0.013,0.19
-0.185,0.018,0.1945
-0.182,0.0275,0.205
-0.1765,0.0425,0.2115
-0.1705,0.052,0.2295
-0.16,0.063,0.252
-0.1565,0.072,0.265
-0.151,0.081,0.272
-0.1465,0.087,0.271
-0.1495,0.0895,0.276
-0.1505,0.092,0.2795
-0.1565,0.09,0.2765
-0.157,0.091,0.2805
-0.15,0.093,0.278
-0.1455,0.094,0.2725
-0.144,0.0945,0.2705
-0.14,0.0965,0.2705
-0.1395,0.0965,0.272
-0.1445,0.094,0.2685
-0.1405,0.0955,0.269
-0.146,0.0955,0.275
-0.1415,0.0955,0.275
-0.139,0.0965,0.2715
-0.1465,0.097,0.2725
-0.141,0.0985,0.277
-0.14,0.0985,0.275
-0.1385,0.0985,0.2715
-0.136,0.0985,0.272
-0.137,0.0995,0.2695
-0.1355,0.104,0.265
-0.135,0.1045,0.2635
-0.1405,0.102,0.2615
-0.1405,0.1015,0.261
-0.136,0.1015,0.2675
-0.1375,0.104,0.2725
-0.1455,0.1015,0.2735
-0.1475,0.1005,0.2725
-0.1425,0.1045,0.2705
-0.1415,0.104,0.265
-0.138,0.1045,0.259
-0.1365,0.1095,0.2605
-0.142,0.1085,0.267
-0.141,0.108,0.273
-0.1365,0.11,0.271
-0.139,0.111,0.271
-0.1385,0.1105,0.271
-0.135,0.1105,0.267
-0.1335,0.111,0.2725
-0.1315,0.113,0.2745
-0.13,0.115,0.2705
-0.1295,0.114,0.2715
-0.1295,0.114,0.2735
-0.1285,0.114,0.2765
-0.125,0.116,0.2765
-0.1235,0.1165,0.274
-0.12,0.1185,0.2735
-0.1185,0.122,0.275
-0.1245,0.1195,0.274
-0.1295,0.118,0.2685
-0.13,0.12,0.27
-0.1265,0.1215,0.273
-0.1225,0.123,0.2705
-0.1255,0.1215,0.2675
-0.125,0.121,0.2675
-0.1225,0.123,0.2705
-0.125,0.1225,0.2715
-0.12,0.123,0.2755
-0.117,0.125,0.281
-0.12,0.1245,0.2765
-0.119,0.127,0.273
-0.118,0.129,0.275
-0.116,0.13,0.279
-0.12,0.1305,0.278
-0.121,0.1325,0.2725
-0.118,0.134,0.2745
-0.1195,0.134,0.274
-0.117,0.135,0.2705
-0.1145,0.1345,0.2745
-0.111,0.136,0.277
-0.11,0.135,0.2785
-0.114,0.134,0.2795
-0.1165,0.136,0.2715
-0.116,0.138,0.2665
-0.114,0.1385,0.2685
-0.113,0.1385,0.2725
-0.115,0.14,0.277
-0.1155,0.1415,0.279
-0.111,0.1435,0.2785
-0.109,0.144,0.2765
-0.105,0.1455,0.277
-0.1035,0.1475,0.279
-0.107,0.1455,0.282
-0.103,0.146,0.2835
-0.1,0.151,0.285
-0.102,0.1515,0.2825
-0.1035,0.1535,0.278
-0.1025,0.1555,0.279
-0.1005,0.156,0.2765
-0.1,0.158,0.275
-0.0995,0.1595,0.275
-0.099,0.16,0.277
-0.0985,0.1615,0.2805
-0.0945,0.1655,0.2845
-0.0975,0.1655,0.287
-0.097,0.165,0.289
-0.0925,0.169,0.2935
-0.091,0.1705,0.2925
-0.091,0.171,0.293
-0.09,0.1725,0.2955
-0.086,0.1745,0.2975
-0.085,0.1765,0.2965
-0.0845,0.179,0.297
-0.086,0.182,0.297
-0.084,0.1845,0.2965
-0.079,0.1865,0.2975
-0.0845,0.1865,0.294
-0.0855,0.1885,0.2945
-0.081,0.1905,0.293
-0.081,0.193,0.294
-0.076,0.197,0.297
-0.078,0.1985,0.298
-0.082,0.1985,0.3
-0.077,0.2015,0.3
-0.0785,0.203,0.299
-0.079,0.2045,0.2985
-0.075,0.209,0.305
-0.071,0.2115,0.3105
-0.0645,0.217,0.3125
-0.0585,0.2215,0.313
-0.0605,0.221,0.314
-0.0595,0.224,0.3145
-0.055,0.2265,0.311
-0.0565,0.23,0.313
-0.0535,0.2355,0.319
-0.05,0.2385,0.3195
-0.0485,0.241,0.3215
-0.041,0.2455,0.325
-0.0335,0.2515,0.3245
-0.031,0.255,0.323
-0.0305,0.2555,0.324
-0.024,0.256,0.3285
-0.0205,0.261,0.3305
-0.0275,0.2645,0.3295
-0.028,0.2635,0.333
-0.026,0.2655,0.339
-0.0225,0.267,0.3415
-0.0205,0.2705,0.339
-0.018,0.278,0.338
-0.014,0.2825,0.3415
-0.0155,0.2845,0.343
-0.016,0.288,0.3455
-0.013,0.291,0.347
-0.009,0.2965,0.347
-0.002,0.3035,0.345
0.0,0.3075,0.3465
0.0015,0.3105,0.3465
0.0055,0.3135,0.345
0.0075,0.318,0.3495
0.0095,0.3225,0.35
0.011,0.3265,0.355
0.0085,0.3295,0.3585
0.008,0.335,0.3585
0.011,0.3375,0.362
0.0105,0.3395,0.3655
0.0155,0.3475,0.3625
0.025,0.3535,0.3605
0.0275,0.356,0.3685
0.0275,0.3595,0.3715
0.029,0.364,0.3725
0.0365,0.3675,0.375
0.048,0.376,0.376
0.0505,0.379,0.3805
0.0505,0.3815,0.386
0.054,0.3885,0.3845
0.0545,0.391,0.3835
0.058,0.3945,0.381
0.056,0.397,0.382
0.0555,0.398,0.3875
0.0605,0.404,0.3905
0.0645,0.409,0.393
0.0685,0.409,0.3965
0.0675,0.4105,0.3955
0.068,0.4145,0.387
0.0715,0.417,0.388
0.075,0.418,0.393
0.0715,0.421,0.3875
0.07,0.4235,0.3865
0.073,0.4255,0.395
0.075,0.4285,0.4005
0.081,0.433,0.4035
0.086,0.436,0.4045
0.0835,0.4365,0.4105
0.0895,0.4395,0.4175
0.0905,0.4435,0.4195
0.087,0.445,0.415
0.0895,0.445,0.412
0.088,0.4455,0.4145
0.0895,0.447,0.411
0.0875,0.4505,0.4075
0.0835,0.451,0.4065
0.0875,0.452,0.4105
0.0925,0.453,0.4115
0.091,0.453,0.408
0.092,0.4555,0.4095
0.091,0.4545,0.4095
0.091,0.455,0.417
0.0925,0.456,0.4215
0.087,0.4535,0.4215
0.087,0.4545,0.426
0.0895,0.4545,0.424
0.088,0.453,0.427
0.085,0.4515,0.426
0.0845,0.451,0.422
0.0835,0.45,0.42
0.0785,0.4465,0.411
0.079,0.444,0.4105
0.078,0.4425,0.4115
0.081,0.441,0.409
0.0795,0.4365,0.4115
0.075,0.4315,0.417
0.072,0.43,0.4185
0.061,0.4245,0.4085
0.061,0.423,0.4055
0.0595,0.4165,0.409
0.0575,0.407,0.4125
0.057,0.4045,0.4155
0.0455,0.4,0.4085
0.04,0.394,0.402
0.0385,0.387,0.406
0.035,0.3805,0.4035
0.03,0.373,0.395
0.027,0.3675,0.397
0.0205,0.3615,0.396
0.0155,0.353,0.39
0.0135,0.347,0.3855
0.009,0.34,0.3785
0.004,0.3325,0.3725
0.001,0.328,0.369
-0.0015,0.321,0.364
-0.004,0.313,0.359
-0.0105,0.306,0.3555
-0.0185,0.2975,0.349
-0.0225,0.292,0.3455
-0.0285,0.2855,0.3445
-0.0315,0.2775,0.3445
-0.037,0.2695,0.3415
-0.0455,0.2625,0.339
-0.054,0.256,0.3385
-0.0575,0.249,0.3365
-0.0525,0.2445,0.3295
-0.051,0.242,0.321
-0.0545,0.2385,0.3175
-0.0615,0.23,0.314
-0.0655,0.2235,0.313
-0.0655,0.2205,0.316
-0.069,0.2145,0.312
-0.074,0.2075,0.311
-0.082,0.2005,0.313
-0.093,0.1935,0.309
-0.0985,0.1895,0.308
-0.095,0.189,0.3075
-0.0925,0.1835,0.3045
-0.0925,0.1785,0.301
-0.093,0.175,0.2925
-0.097,0.171,0.2835
-0.093,0.1685,0.2825
-0.0955,0.164,0.283
-0.102,0.161,0.2795
-0.099,0.158,0.276
-0.104,0.155,0.2745
-0.112,0.153,0.2705
-0.1175,0.1485,0.2725
-0.1175,0.1455,0.282
-0.1215,0.1425,0.2825
-0.124,0.14,0.2795
-0.1165,0.139,0.274
-0.117,0.1355,0.275
-0.119,0.134,0.273
-0.1195,0.1335,0.2675
-0.1215,0.132,0.272
-0.1235,0.1295,0.2735
-0.1255,0.1285,0.2655
-0.122,0.13,0.2545
-0.1245,0.1265,0.254
-0.13,0.1245,0.2525
-0.13,0.124,0.2485
-0.1275,0.122,0.253
-0.123,0.1235,0.2565
-0.1205,0.1215,0.256
-0.121,0.12,0.259
-0.1195,0.118,0.2605
-0.121,0.1165,0.2585
-0.129,0.117,0.257
-0.13,0.1165,0.255
-0.1315,0.1125,0.2515
-0.1335,0.1135,0.248
-0.133,0.112,0.248
-0.1335,0.1105,0.249
-0.1335,0.1105,0.249
-0.135,0.1095,0.2505
-0.133,0.1125,0.2545
-0.131,0.112,0.251
-0.1315,0.1115,0.245
-0.1345,0.1095,0.2485
-0.1355,0.1075,0.2485
-0.1365,0.108,0.2495
-0.135,0.11,0.252
-0.1315,0.113,0.251
-0.1325,0.111,0.2515
-0.136,0.1095,0.248
-0.137,0.1105,0.249
-0.14,0.1095,0.25
-0.1415,0.11,0.249
-0.1365,0.1115,0.253
-0.1365,0.11,0.255
-0.133,0.1105,0.256
-0.133,0.1105,0.256
-0.1335,0.11,0.2535
-0.1295,0.1105,0.2525
-0.1325,0.1095,0.2515
-0.1335,0.111,0.2515
-0.1335,0.1105,0.25
-0.131,0.11,0.2485
-0.1315,0.11,0.25
-0.1355,0.109,0.25
-0.1365,0.1095,0.2525
-0.1355,0.1105,0.2525
-0.1305,0.113,0.256
-0.13,0.113,0.2565
-0.1305,0.111,0.256
-0.125,0.113,0.259
-0.13,0.115,0.2555
-0.135,0.1125,0.2545
-0.131,0.1115,0.258
-0.1305,0.112,0.259
-0.1295,0.1085,0.256
-0.131,0.1105,0.2555
-0.1305,0.1155,0.2525
-0.1315,0.1125,0.251
-0.1375,0.1125,0.25
-0.137,0.115,0.246
-0.133,0.116,0.2435
-0.1295,0.1175,0.242
-0.1315,0.116,0.243
-0.135,0.1145,0.246
-0.1325,0.116,0.2525
-0.13,0.1185,0.2555
-0.1315,0.119,0.2575
-0.1335,0.119,0.255
-0.131,0.1185,0.2515
-0.133,0.119,0.2515
-0.1355,0.117,0.2495
-0.131,0.1195,0.255
-0.127,0.1215,0.2575
-0.1295,0.12,0.254
-0.1315,0.12,0.255
-0.1295,0.119,0.256
-0.13,0.118,0.2565
-0.13,0.119,0.2565
-0.128,0.12,0.259
-0.135,0.119,0.2535
-0.145,0.117,0.247
-0.1465,0.117,0.2485
-0.1445,0.1175,0.2465
-0.1425,0.116,0.2485
-0.144,0.1175,0.248
-0.141,0.12,0.25
-0.136,0.1205,0.2575
-0.1305,0.121,0.2575
-0.131,0.121,0.2525
-0.134,0.1205,0.2475
-0.132,0.122,0.249
-0.133,0.1225,0.2515
-0.135,0.123,0.258
-0.136,0.1235,0.265
-0.1395,0.1215,0.271
-0.142,0.1195,0.2705
-0.1365,0.1195,0.2625
-0.13,0.1225,0.258
-0.1285,0.123,0.2625
-0.13,0.1225,0.2705
-0.1325,0.122,0.2625
-0.1335,0.1225,0.2595
-0.1295,0.1235,0.2655
-0.1285,0.1215,0.2645
-0.13,0.1235,0.262
-0.13,0.1245,0.258
-0.1325,0.1235,0.2575
-0.1325,0.122,0.2585
-0.1315,0.121,0.2565
-0.1325,0.1215,0.2535
-0.1305,0.1215,0.2565
-0.1335,0.122,0.2575
-0.132,0.122,0.257
-0.129,0.1215,0.2555
-0.1325,0.1215,0.2505
-0.133,0.121,0.2515
-0.134,0.1175,0.2545
-0.134,0.1175,0.26
-0.1335,0.1195,0.258
-0.1335,0.1195,0.2545
-0.135,0.118,0.255
-0.133,0.1215,0.2545
-0.133,0.119,0.2575
-0.1355,0.113,0.2595
-0.134,0.117,0.2605
-0.1385,0.118,0.2575
-0.138,0.1175,0.2535
-0.1345,0.12,0.2555
-0.1345,0.119,0.258
-0.1305,0.118,0.2565
-0.13,0.1185,0.259
-0.1285,0.1195,0.262
-0.131,0.118,0.258
-0.133,0.117,0.2525
-0.135,0.1195,0.251
-0.1335,0.1195,0.2525
-0.131,0.1185,0.2525
-0.1335,0.1175,0.254
-0.133,0.1145,0.258
-0.133,0.1115,0.2605
-0.1355,0.112,0.257
-0.136,0.113,0.257
-0.1335,0.115,0.259
-0.137,0.112,0.2595
-0.144,0.111,0.2605
-0.143,0.1135,0.2595
-0.14,0.1105,0.2625
-0.14,0.1095,0.2615
-0.1315,0.1105,0.261
-0.129,0.1105,0.26
-0.1325,0.1095,0.259
-0.1325,0.1105,0.254
-0.135,0.111,0.247
-0.137,0.1095,0.2465
-0.1375,0.108,0.2445
-0.138,0.108,0.242
-0.139,0.107,0.237
-0.137,0.1075,0.24
-0.134,0.109,0.2465
-0.135,0.108,0.246
-0.136,0.109,0.2425
-0.1355,0.1065,0.2425
-0.1355,0.1045,0.2495
-0.1395,0.104,0.25
-0.1375,0.1045,0.2485
-0.1375,0.105,0.2465
-0.1405,0.106,0.2465
-0.14,0.1035,0.2435
-0.1405,0.102,0.237
-0.138,0.103,0.2355
-0.1385,0.1025,0.2385
-0.138,0.103,0.2385
-0.1385,0.104,0.236
-0.139,0.101,0.24
-0.1405,0.098,0.239
-0.141,0.101,0.2375
-0.1385,0.0985,0.2345
-0.1385,0.0995,0.236
-0.1365,0.103,0.243
-0.1425,0.1015,0.2415
-0.1415,0.1015,0.2395
-0.1365,0.102,0.2385
-0.1405,0.102,0.2375
-0.14,0.0995,0.2375
-0.1365,0.1005,0.2395
-0.135,0.1015,0.2395
-0.1375,0.1,0.24
-0.1375,0.1005,0.2425
-0.138,0.0985,0.242
-0.14,0.0985,0.242
-0.143,0.0975,0.242
-0.146,0.095,0.239
-0.143,0.096,0.2375
-0.144,0.0945,0.2335
-0.141,0.097,0.23
-0.1365,0.099,0.2275
-0.1365,0.0985,0.2245
-0.136,0.1,0.2255
-0.1375,0.0975,0.2245
-0.136,0.096,0.2285
-0.1395,0.095,0.227
-0.1425,0.0945,0.2215
-0.1375,0.0955,0.227
-0.14,0.094,0.2305
-0.1395,0.095,0.232
-0.137,0.094,0.228
-0.135,0.0935,0.224
-0.1315,0.0935,0.23
-0.134,0.093,0.2345
-0.1365,0.0915,0.234
-0.141,0.088,0.2315
-0.1415,0.0905,0.2345
-0.1385,0.092,0.233
-0.1395,0.0915,0.2285
-0.142,0.0925,0.227
-0.141,0.0915,0.226
-0.137,0.0925,0.224
-0.135,0.094,0.225
-0.135,0.0945,0.227
-0.1395,0.093,0.228
-0.1405,0.09,0.235
-0.1425,0.091,0.2365
-0.146,0.091,0.233
-0.1485,0.0905,0.229
-0.1495,0.092,0.2235
-0.1465,0.0925,0.224
-0.1505,0.0915,0.228
-0.1535,0.0895,0.228
-0.147,0.0925,0.2255
-0.139,0.094,0.2235
-0.1365,0.0945,0.2265
-0.1405,0.0945,0.2325
-0.139,0.095,0.237
-0.138,0.0955,0.234
-0.1425,0.0935,0.226
-0.144,0.091,0.228
-0.1425,0.09,0.225
-0.1445,0.092,0.2235
-0.144,0.0905,0.226
-0.1405,0.0915,0.2225
-0.14,0.0925,0.2255
-0.141,0.0905,0.225
-0.1385,0.0915,0.221
-0.1365,0.094,0.2245
-0.137,0.0925,0.228
-0.1365,0.0905,0.2285
-0.143,0.0915,0.226
-0.1485,0.09,0.227
-0.144,0.0885,0.2265
-0.1425,0.09,0.225
-0.1445,0.0885,0.2295
-0.144,0.0875,0.2305
-0.143,0.0915,0.228
-0.143,0.091,0.2285
-0.144,0.0905,0.229
-0.1455,0.0895,0.224
-0.1435,0.0915,0.223
-0.14,0.0925,0.2225
-0.1445,0.0895,0.2175
-0.147,0.0895,0.219
-0.14,0.091,0.2215
-0.1395,0.0915,0.223
-0.1405,0.09,0.227
-0.14,0.091,0.2295
-0.144,0.089,0.2305
-0.142,0.0885,0.2325
-0.141,0.0905,0.2345
-0.1445,0.0885,0.233
-0.144,0.0895,0.2325
-0.141,0.092,0.2345
-0.1395,0.092,0.2375
-0.1415,0.0905,0.2375
-0.1435,0.091,0.231
-0.143,0.0915,0.227
-0.1415,0.0915,0.2275
-0.143,0.09,0.2265
-0.146,0.088,0.2255
-0.1455,0.088,0.2265
-0.1465,0.089,0.229
-0.1475,0.09,0.229
-0.149,0.09,0.222
-0.151,0.09,0.2165
-0.153,0.0875,0.2155
-0.152,0.0885,0.216
-0.15,0.0885,0.2205
-0.148,0.089,0.2205
-0.144,0.091,0.224
-0.142,0.0895,0.229
-0.143,0.089,0.2275
-0.1475,0.087,0.2295
-0.1505,0.0855,0.23
-0.1505,0.0865,0.2275
-0.148,0.0875,0.228
-0.147,0.088,0.229
-0.1495,0.0885,0.2275
-0.148,0.0875,0.229
-0.1455,0.087,0.2225
-0.1435,0.088,0.2115
-0.143,0.0875,0.212
-0.1435,0.0875,0.2125
-0.146,0.087,0.214
-0.147,0.0875,0.2105
-0.145,0.0875,0.211
-0.1475,0.0855,0.2225
-0.15,0.0855,0.2255
-0.149,0.0855,0.2215
-0.1495,0.0875,0.2195
-0.1545,0.087,0.216
-0.157,0.0865,0.217
-0.1505,0.0885,0.221
-0.1475,0.0885,0.223
-0.1485,0.0905,0.227
-0.1475,0.091,0.224
-0.1455,0.0905,0.222
-0.1445,0.0915,0.221
-0.1485,0.09,0.221
-0.149,0.0895,0.2215
-0.147,0.09,0.2205
-0.1475,0.089,0.2205
-0.149,0.0905,0.2195
-0.1485,0.0905,0.2195
-0.1465,0.091,0.217
-0.1485,0.0895,0.2145
-0.1515,0.087,0.214
-0.1475,0.09,0.2215
-0.1465,0.0905,0.222
-0.1475,0.09,0.2195
-0.1435,0.091,0.2215
-0.145,0.0895,0.2185
-0.1475,0.0875,0.219
-0.1475,0.0885,0.2265
-0.15,0.088,0.2295
-0.152,0.087,0.2275
-0.1505,0.087,0.2265
-0.153,0.0865,0.225
-0.1535,0.0865,0.2255
-0.1495,0.0855,0.225
-0.1485,0.086,0.2275
-0.144,0.0865,0.2365
-0.1455,0.0855,0.238
-0.147,0.085,0.2355
-0.1445,0.0835,0.2345
-0.1495,0.0805,0.228
-0.1505,0.0815,0.2255
-0.15,0.0825,0.2275
-0.151,0.0825,0.226
-0.149,0.083,0.225
-0.149,0.0815,0.2235
-0.15,0.0825,0.2255
-0.1465,0.081,0.2275
-0.147,0.0805,0.2305
-0.147,0.083,0.238
-0.149,0.0825,0.2405
-0.155,0.0815,0.2385
-0.156,0.0825,0.235
-0.1575,0.082,0.229
-0.1545,0.083,0.22
-0.1475,0.086,0.2195
-0.144,0.087,0.219
-0.14,0.089,0.2195
-0.1395,0.09,0.2185
-0.141,0.0915,0.217
-0.1355,0.092,0.2225
-0.1325,0.0945,0.2245
-0.1395,0.096,0.2305
-0.139,0.0925,0.2325
-0.133,0.0965,0.2295
-0.13,0.102,0.2285
-0.1285,0.104,0.2265
-0.131,0.1025,0.222
-0.128,0.105,0.2225
-0.124,0.109,0.229
-0.1175,0.1125,0.2345
-0.1135,0.1195,0.238
-0.113,0.125,0.2415
-0.1095,0.126,0.2475
-0.1095,0.124,0.2525
-0.109,0.124,0.2555
-0.11,0.128,0.2625
-0.109,0.1325,0.2705
-0.1035,0.1355,0.2685
-0.1,0.1395,0.266
-0.092,0.1445,0.266
-0.0865,0.15,0.2655
-0.082,0.154,0.27
-0.075,0.1605,0.27
-0.0745,0.1625,0.2695
-0.0765,0.1615,0.272
-0.083,0.1605,0.2725
-0.0865,0.16,0.269
-0.0815,0.162,0.268
-0.0805,0.161,0.266
-0.0825,0.161,0.2645
-0.0875,0.1585,0.261
-0.0925,0.154,0.2505
-0.0925,0.1545,0.2515
-0.09,0.1565,0.2535
-0.083,0.1575,0.2495
-0.0785,0.1595,0.2465
-0.0785,0.1605,0.243
-0.0815,0.158,0.233
-0.081,0.1585,0.2265
-0.078,0.1585,0.2285
-0.0785,0.157,0.2315
-0.0815,0.155,0.2355
-0.0785,0.155,0.238
-0.0725,0.154,0.2385
-0.0805,0.1495,0.237
-0.0855,0.146,0.2335
-0.0865,0.1425,0.2325
-0.0925,0.137,0.2355
-0.0965,0.1315,0.236
-0.107,0.124,0.234
-0.115,0.1185,0.2335
-0.1175,0.117,0.2325
-0.113,0.1145,0.234
-0.1065,0.113,0.2355
-0.108,0.1135,0.236
-0.1095,0.112,0.2345
-0.115,0.109,0.234
-0.1185,0.107,0.229
-0.1175,0.107,0.226
-0.117,0.1055,0.231
-0.121,0.1045,0.23
-0.123,0.1045,0.224
-0.117,0.1085,0.2245
-0.11,0.113,0.228
-0.1005,0.1165,0.2325
-0.0945,0.119,0.23
-0.0915,0.122,0.227
-0.087,0.1245,0.2325
-0.0885,0.123,0.233
-0.089,0.1255,0.2345
-0.0885,0.125,0.2305
-0.087,0.1235,0.225
-0.0855,0.1245,0.221
-0.0875,0.124,0.2135
-0.0905,0.1235,0.2115
-0.0885,0.122,0.2145
-0.0875,0.1225,0.2215
-0.09,0.1235,0.2225
-0.095,0.1195,0.22
-0.0985,0.116,0.221
-0.0995,0.116,0.2195
-0.1025,0.114,0.219
-0.0995,0.1135,0.216
-0.1,0.113,0.2125
-0.1025,0.1095,0.2125
-0.0995,0.1065,0.2115
-0.0995,0.1035,0.205
-0.105,0.099,0.2065
-0.11,0.0925,0.2135
-0.117,0.0865,0.2095
-0.128,0.0805,0.204
-0.14,0.0745,0.196
-0.149,0.067,0.192
-0.151,0.0635,0.195
-0.156,0.061,0.195
-0.163,0.0585,0.198
-0.166,0.0585,0.2
-0.167,0.0575,0.1975
-0.167,0.058,0.1955
-0.165,0.0595,0.199
-0.1625,0.0595,0.201
-0.1635,0.059,0.1995
-0.163,0.06,0.1985
-0.16,0.0635,0.202
-0.1555,0.0635,0.203
-0.1565,0.0635,0.197
-0.162,0.0615,0.196
-0.167,0.06,0.1995
-0.168,0.0605,0.2025
-0.1665,0.0605,0.2
-0.164,0.061,0.1995
-0.162,0.061,0.2045
-0.165,0.06,0.208
-0.167,0.0585,0.2095
-0.1665,0.0595,0.21
-0.1685,0.0605,0.2085
-0.164,0.062,0.205
-0.159,0.065,0.201
-0.16,0.064,0.199
-0.1635,0.062,0.202
-0.1715,0.061,0.202
-0.1685,0.0615,0.2045
-0.162,0.063,0.204
-0.161,0.0635,0.203
-0.1655,0.062,0.206
-0.1685,0.0605,0.2075
-0.1585,0.0645,0.211
-0.157,0.0645,0.214
-0.163,0.0625,0.2145
-0.169,0.061,0.2165
-0.171,0.0605,0.219
-0.172,0.0615,0.2195
-0.1685,0.0595,0.22
-0.1605,0.0605,0.214
-0.161,0.06,0.2105
-0.159,0.061,0.216
-0.159,0.0625,0.2215
-0.1595,0.061,0.2185
-0.1625,0.061,0.218
-0.1665,0.059,0.221
-0.1665,0.0595,0.224
-0.1675,0.0615,0.2285
-0.1675,0.0615,0.2255
-0.1685,0.0635,0.232
-0.168,0.0635,0.2325
-0.169,0.0625,0.224
-0.169,0.064,0.2225
-0.167,0.0635,0.225
-0.1675,0.0645,0.229
-0.167,0.0655,0.2265
-0.166,0.064,0.225
-0.166,0.065,0.225
-0.169,0.064,0.2295
-0.1695,0.061,0.233
-0.169,0.0605,0.228
-0.171,0.0625,0.2275
-0.1735,0.06,0.2325
-0.174,0.059,0.232
-0.174,0.0575,0.233
-0.1795,0.0485,0.2335
-0.1835,0.042,0.232
-0.1885,0.035,0.2355
-0.2015,0.023,0.2345
-0.222,0.01,0.2315
-0.236,-0.003,0.2325
-0.2445,-0.0135,0.241
-0.253,-0.023,0.2495
-0.258,-0.033,0.2535
-0.2615,-0.042,0.258
-0.273,-0.055,0.253
-0.286,-0.0685,0.246
-0.2895,-0.085,0.2355
-0.289,-0.1015,0.227
-0.2855,-0.1085,0.2145
-0.2845,-0.11,0.203
-0.285,-0.1125,0.201
-0.284,-0.1085,0.2075
-0.275,-0.0955,0.2185
-0.2535,-0.07,0.2175
-0.2315,-0.036,0.226
-0.2045,0.003,0.247
-0.1675,0.053,0.2575
-0.1175,0.1145,0.27
-0.0685,0.178,0.2845
-0.0215,0.242,0.289
0.036,0.3145,0.302
0.092,0.3865,0.316
0.1435,0.46,0.3335
0.193,0.5475,0.366
0.254,0.6505,0.418
0.3065,0.7485,0.4805
0.35,0.8405,0.5455
0.3935,0.93,0.6185
0.424,1.017,0.6965
0.4495,1.0995,0.775
0.4725,1.1705,0.847
0.495,1.241,0.9165
0.5135,1.3115,0.99
0.521,1.3695,1.0625
0.532,1.439,1.1425
0.552,1.5195,1.206
0.5505,1.566,1.231
0.5375,1.5965,1.2585
0.5255,1.6045,1.279
0.4935,1.5715,1.266
0.45,1.51,1.2275
0.405,1.426,1.1645
0.3735,1.337,1.059
0.3505,1.249,0.9545
0.321,1.1745,0.8865
0.2885,1.104,0.8355
0.249,1.034,0.804
0.2095,0.9675,0.7735
0.172,0.8935,0.7315
0.14,0.819,0.694
0.091,0.7355,0.672
0.031,0.6355,0.644
-0.0145,0.5375,0.62
-0.0545,0.4455,0.5955
-0.0845,0.358,0.5575
-0.1135,0.284,0.517
-0.152,0.201,0.473
-0.1955,0.113,0.4325
-0.2175,0.067,0.3975
-0.2185,0.0455,0.3635
-0.2175,0.028,0.321
-0.2145,0.007,0.2865
-0.22,-0.0215,0.2545
-0.221,-0.038,0.229
-0.2135,-0.0465,0.2105
-0.2065,-0.0525,0.187
-0.1975,-0.0475,0.177
-0.1925,-0.04,0.172
-0.1925,-0.0325,0.165
-0.1965,-0.0255,0.171
-0.194,-0.017,0.183
-0.185,-0.004,0.1915
-0.18,0.0055,0.203
-0.176,0.016,0.208
-0.174,0.023,0.209
-0.178,0.027,0.214
-0.18,0.033,0.222
-0.1785,0.044,0.233
-0.1735,0.055,0.2495
-0.169,0.063,0.262
-0.1625,0.073,0.2725
-0.1565,0.08,0.286
-0.1595,0.084,0.2895
-0.1545,0.088,0.2955
-0.151,0.089,0.301
-0.15,0.0925,0.3
-0.1465,0.098,0.297
-0.1475,0.0975,0.2935
-0.1455,0.0955,0.291
-0.1455,0.097,0.289
-0.148,0.0965,0.2855
-0.1485,0.095,0.2835
-0.1475,0.0975,0.2825
-0.1455,0.097,0.2845
-0.1425,0.0955,0.2875
-0.144,0.0965,0.289
-0.147,0.094,0.289
-0.146,0.0955,0.287
-0.1435,0.097,0.289
-0.142,0.0965,0.2895
-0.1455,0.0955,0.289
-0.1505,0.094,0.2875
-0.155,0.095,0.2915
-0.1555,0.0955,0.2925
-0.1495,0.098,0.2885
-0.1475,0.0975,0.2895
-0.1455,0.096,0.289
-0.143,0.099,0.2885
-0.144,0.099,0.289
-0.14,0.099,0.293
-0.1435,0.099,0.286
-0.1435,0.1015,0.2825
-0.134,0.105,0.2835
-0.1335,0.1025,0.283
-0.1345,0.1015,0.2895
-0.137,0.101,0.2885
-0.134,0.102,0.2925
-0.1315,0.1035,0.299
-0.136,0.103,0.2975
-0.1395,0.1025,0.295
-0.1405,0.102,0.292
-0.1395,0.1035,0.2895
-0.1405,0.1035,0.2915
-0.134,0.106,0.2925
-0.128,0.108,0.291
-0.1225,0.1105,0.292
-0.12,0.111,0.292
-0.125,0.111,0.2875
-0.1265,0.111,0.286
-0.126,0.111,0.2865
-0.1295,0.112,0.286
-0.1315,0.112,0.288
-0.126,0.1145,0.2895
-0.1265,0.114,0.2875
-0.1235,0.1145,0.291
-0.12,0.117,0.2975
-0.125,0.117,0.2945
-0.1305,0.116,0.2895
-0.1335,0.117,0.289
-0.123,0.12,0.2925
-0.1195,0.12,0.297
-0.1235,0.12,0.297
-0.122,0.122,0.293
-0.1225,0.1215,0.294
-0.1205,0.122,0.2955
-0.1175,0.126,0.293
-0.1165,0.1255,0.291
-0.1175,0.125,0.292
-0.124,0.127,0.295
-0.123,0.126,0.2955
-0.12,0.125,0.2965
-0.122,0.127,0.2995
-0.121,0.13,0.296
-0.123,0.13,0.2895
-0.123,0.1295,0.2905
-0.121,0.1295,0.2945
-0.1185,0.1305,0.294
-0.116,0.1325,0.294
-0.118,0.132,0.295
-0.119,0.133,0.293
-0.1155,0.1345,0.29
-0.114,0.136,0.2895
-0.117,0.1375,0.2895
-0.119,0.1385,0.2915
-0.1145,0.141,0.289
-0.11,0.1425,0.286
-0.111,0.143,0.287
-0.1125,0.143,0.2855
-0.114,0.143,0.2885
-0.1135,0.145,0.2905
-0.1105,0.1475,0.293
-0.109,0.1485,0.2995
-0.11,0.15,0.2995
-0.109,0.152,0.3
-0.1055,0.1515,0.303
-0.104,0.151,0.3065
-0.101,0.1545,0.3115
-0.0985,0.156,0.309
-0.0955,0.1575,0.31
-0.096,0.1605,0.31
-0.0945,0.1625,0.3055
-0.093,0.164,0.304
-0.094,0.165,0.301
-0.093,0.1655,0.302
-0.0915,0.168,0.3035
-0.0895,0.169,0.303
-0.09,0.171,0.3
-0.0865,0.1735,0.2985
-0.086,0.1735,0.3045
-0.084,0.1755,0.3095
-0.079,0.1765,0.312
-0.0785,0.177,0.3115
-0.0785,0.18,0.3115
-0.0785,0.181,0.312
-0.0775,0.1825,0.3115
-0.0755,0.185,0.3155
-0.075,0.1865,0.3165
-0.075,0.189,0.3135
-0.075,0.191,0.3105
-0.075,0.1915,0.311
-0.0715,0.194,0.313
-0.072,0.1975,0.3125
-0.0715,0.199,0.3165
-0.0695,0.203,0.322
-0.0715,0.206,0.323
-0.064,0.208,0.327
-0.0545,0.214,0.326
-0.0495,0.2165,0.324
-0.05,0.2165,0.325
-0.0485,0.22,0.3255
-0.052,0.2215,0.3315
-0.0605,0.222,0.336
-0.0555,0.226,0.3345
-0.054,0.2285,0.335
-0.055,0.2315,0.3405
-0.049,0.2345,0.345
-0.0445,0.238,0.3465
-0.043,0.242,0.3505
-0.0405,0.2465,0.356
-0.0365,0.2515,0.357
-0.0325,0.256,0.357
-0.028,0.2595,0.3595
-0.0235,0.2635,0.362
-0.0195,0.2665,0.362
-0.017,0.27,0.358
-0.0125,0.2755,0.3595
-0.0075,0.2795,0.36
-0.0105,0.2795,0.362
-0.007,0.2815,0.366
-0.003,0.288,0.3665
-0.002,0.2935,0.371
0.002,0.297,0.368
0.0035,0.2995,0.363
0.0035,0.3045,0.3645
0.006,0.308,0.3655
0.009,0.311,0.3675
0.011,0.3145,0.3705
0.013,0.3185,0.373
0.0175,0.324,0.379
0.02,0.3275,0.3835
0.024,0.3305,0.3845
0.028,0.334,0.3865
0.027,0.3385,0.3885
0.031,0.3415,0.3915
0.0375,0.3475,0.3925
0.042,0.3525,0.397
0.043,0.3555,0.398
0.0415,0.357,0.399
0.0395,0.359,0.396
0.042,0.3645,0.3945
0.045,0.366,0.3985
0.0445,0.3695,0.3995
0.0445,0.3755,0.3995
0.0475,0.378,0.399
0.054,0.381,0.404
0.0575,0.3845,0.4095
0.0595,0.388,0.413
0.064,0.393,0.4155
0.068,0.397,0.4155
0.068,0.3985,0.4165
0.0695,0.4015,0.4205
0.074,0.402,0.4225
0.0725,0.4045,0.4235
0.0735,0.4115,0.426
0.0785,0.4115,0.4275
0.0795,0.4135,0.428
0.082,0.4185,0.4285
0.0815,0.418,0.4295
0.0795,0.4185,0.427
0.082,0.4205,0.428
0.0835,0.423,0.4355
0.083,0.4265,0.4395
0.087,0.429,0.44
0.088,0.4295,0.436
0.0835,0.429,0.431
0.0865,0.43,0.435
0.09,0.4315,0.4405
0.092,0.4345,0.4455
0.093,0.4365,0.4475
0.092,0.436,0.4425
0.093,0.4365,0.4395
0.0915,0.437,0.4375
0.0895,0.437,0.438
0.0895,0.4375,0.4395
0.0885,0.4365,0.4395
0.089,0.435,0.4405
0.087,0.4345,0.437
0.0855,0.4315,0.433
0.0835,0.4295,0.432
0.078,0.428,0.425
0.0745,0.426,0.4225
0.072,0.4245,0.425
0.07,0.422,0.425
0.0675,0.4175,0.425
0.0715,0.4155,0.4305
0.0725,0.413,0.4325
0.0655,0.407,0.434
0.066,0.4055,0.441
0.065,0.4025,0.4415
0.058,0.395,0.438
0.0505,0.39,0.429
0.044,0.3825,0.4205
0.0425,0.3775,0.4195
0.041,0.372,0.413
0.0385,0.3655,0.412
0.032,0.3605,0.4095
0.028,0.354,0.404
0.026,0.349,0.404
0.0195,0.342,0.402
0.011,0.333,0.3975
0.0025,0.326,0.3935
-0.0045,0.319,0.388
-0.0105,0.312,0.381
-0.0105,0.3065,0.378
-0.0105,0.3,0.376
-0.0135,0.293,0.376
-0.016,0.2855,0.375
-0.019,0.2785,0.3715
-0.0215,0.2745,0.374
-0.024,0.269,0.374
-0.027,0.263,0.3675
-0.0325,0.257,0.358
-0.0405,0.248,0.354
-0.0475,0.2425,0.35
-0.049,0.238,0.343
-0.0525,0.2335,0.337
-0.0575,0.2255,0.329
-0.0645,0.218,0.326
-0.0675,0.214,0.323
-0.067,0.207,0.3175
-0.069,0.203,0.3145
-0.073,0.1975,0.3125
-0.0785,0.191,0.3125
-0.081,0.188,0.312
-0.082,0.1825,0.309
-0.086,0.1775,0.308
-0.09,0.174,0.3055
-0.093,0.17,0.3065
-0.0985,0.1655,0.307
-0.1015,0.161,0.2955
-0.0985,0.1585,0.288
-0.096,0.155,0.2855
-0.1015,0.1495,0.2845
-0.11,0.1475,0.285
-0.109,0.1465,0.2825
-0.107,0.1425,0.279
-0.1105,0.139,0.276
-0.116,0.135,0.2705
-0.116,0.1315,0.2645
-0.1175,0.13,0.2645
-0.121,0.127,0.262
-0.117,0.124,0.2625
-0.1205,0.1215,0.2605
-0.1255,0.1195,0.254
-0.1275,0.117,0.2565
-0.1305,0.1155,0.259
-0.128,0.1155,0.261
-0.126,0.114,0.2625
-0.126,0.112,0.2615
-0.132,0.1105,0.257
-0.1355,0.109,0.253
-0.1335,0.1075,0.254
-0.1345,0.1065,0.256
-0.135,0.106,0.2555
-0.1325,0.105,0.2555
-0.1325,0.105,0.255
-0.133,0.103,0.2555
-0.1345,0.102,0.254
-0.1345,0.101,0.248
-0.1335,0.1005,0.2465
-0.137,0.101,0.246
-0.1355,0.098,0.2475
-0.1335,0.0995,0.2485
-0.1325,0.1,0.249
-0.1355,0.098,0.2525
-0.1405,0.097,0.249
-0.1375,0.0965,0.249
-0.137,0.097,0.2515
-0.137,0.096,0.2565
-0.136,0.098,0.262
-0.136,0.0985,0.259
-0.138,0.0965,0.2535
-0.142,0.096,0.2515
-0.1435,0.095,0.2515
-0.1425,0.0945,0.253
-0.141,0.0945,0.251
-0.141,0.095,0.248
-0.138,0.096,0.2495
-0.138,0.094,0.2495
-0.1405,0.0945,0.2475
-0.1405,0.0965,0.2445
-0.1375,0.0975,0.2445
-0.1385,0.097,0.2465
-0.1445,0.096,0.2495
-0.1405,0.0945,0.2535
-0.14,0.094,0.251
-0.1435,0.094,0.245
-0.136,0.096,0.2435
-0.134,0.0975,0.2455
-0.1345,0.097,0.2505
-0.134,0.096,0.2525
-0.132,0.0975,0.252
-0.13,0.0995,0.256
-0.134,0.0985,0.2535
-0.1345,0.0995,0.252
-0.1335,0.0985,0.2485
-0.138,0.0965,0.2455
-0.1425,0.0945,0.2485
-0.139,0.0955,0.2465
-0.137,0.0965,0.247
-0.146,0.0975,0.246
-0.145,0.1,0.2465
-0.136,0.1005,0.244
-0.133,0.099,0.241
-0.1375,0.0975,0.2445
-0.1385,0.0995,0.2515
-0.134,0.098,0.259
-0.1325,0.0975,0.259
-0.136,0.0985,0.258
-0.1425,0.0995,0.254
-0.1435,0.0985,0.2525
-0.145,0.097,0.251
-0.1475,0.0965,0.2495
-0.1475,0.0965,0.2485
-0.1455,0.099,0.2485
-0.139,0.1,0.2485
-0.132,0.101,0.2515
-0.132,0.1015,0.256
-0.1395,0.098,0.2525
-0.1395,0.0995,0.2565
-0.138,0.101,0.259
-0.138,0.101,0.2575
-0.1365,0.1015,0.255
-0.135,0.0995,0.252
-0.1305,0.101,0.2545
-0.1295,0.1015,0.2545
-0.1305,0.1015,0.2585
-0.1265,0.103,0.2585
-0.1285,0.102,0.2565
-0.1295,0.102,0.26
-0.1275,0.102,0.2585
-0.129,0.1,0.2575
-0.1285,0.1,0.256
-0.132,0.1005,0.252
-0.134,0.1025,0.2535
-0.133,0.1025,0.254
-0.133,0.1005,0.2515
-0.133,0.099,0.2495
-0.1335,0.1,0.2495
-0.133,0.102,0.2525
-0.1355,0.1015,0.2505
-0.137,0.099,0.25
-0.1355,0.098,0.2485
-0.132,0.1,0.2475
-0.13,0.1015,0.25
-0.136,0.1015,0.2555
-0.1375,0.0995,0.2615
-0.138,0.1,0.2615
-0.1405,0.1015,0.262
-0.1375,0.1005,0.2635
-0.136,0.0995,0.26
-0.1405,0.0985,0.2535
-0.1375,0.0995,0.252
-0.131,0.1015,0.254
-0.128,0.103,0.2555
-0.1255,0.1055,0.257
-0.126,0.104,0.2535
-0.13,0.102,0.253
-0.13,0.102,0.255
-0.1265,0.103,0.257
-0.1265,0.104,0.261
-0.13,0.101,0.263
-0.1325,0.0995,0.2645
-0.133,0.099,0.267
-0.134,0.0985,0.267
-0.1315,0.1,0.2635
-0.13,0.0985,0.263
-0.132,0.099,0.2645
-0.1315,0.101,0.265
-0.134,0.099,0.264
-0.137,0.0965,0.262
-0.137,0.0945,0.2605
-0.136,0.0945,0.26
-0.136,0.095,0.2585
-0.136,0.097,0.2495
-0.134,0.0965,0.243
-0.1395,0.0945,0.242
-0.1445,0.092,0.2445
-0.1395,0.094,0.2505
-0.133,0.0945,0.2515
-0.132,0.095,0.2475
-0.1325,0.095,0.2475
-0.132,0.095,0.25
-0.1335,0.0955,0.2505
-0.136,0.0935,0.248
-0.136,0.093,0.252
-0.136,0.093,0.2555
-0.1355,0.093,0.253
-0.134,0.0935,0.2565
-0.1345,0.0915,0.2555
-0.136,0.091,0.2515
-0.1355,0.0905,0.249
-0.1385,0.0895,0.2475
-0.137,0.0895,0.2485
-0.1355,0.089,0.2465
-0.141,0.09,0.243
-0.143,0.088,0.2425
-0.145,0.086,0.242
-0.1445,0.0855,0.24
-0.143,0.0845,0.241
-0.141,0.0845,0.243
-0.1405,0.0845,0.2445
-0.1435,0.083,0.2405
-0.1435,0.083,0.238
-0.145,0.08,0.2395
-0.146,0.079,0.2385
-0.1435,0.083,0.2405
-0.14,0.083,0.241
-0.138,0.0835,0.249
-0.1415,0.083,0.2525
-0.147,0.0795,0.251
-0.1455,0.0805,0.246
-0.1415,0.0815,0.238
-0.144,0.0795,0.236
-0.1415,0.0815,0.234
-0.132,0.083,0.243
-0.1305,0.0835,0.247
-0.1355,0.084,0.246
-0.1375,0.082,0.239
-0.1395,0.0815,0.2335
-0.1425,0.081,0.2325
-0.1435,0.0825,0.2305
-0.144,0.0815,0.2305
-0.1445,0.0805,0.229
-0.142,0.0815,0.2305
-0.14,0.083,0.231
-0.141,0.0825,0.233
-0.143,0.0815,0.232
-0.147,0.081,0.236
-0.149,0.077,0.238
-0.1475,0.078,0.2325
-0.147,0.079,0.2315
-0.147,0.08,0.2325
-0.1445,0.0795,0.235
-0.145,0.0795,0.2305
-0.1475,0.08,0.2265
-0.147,0.078,0.225
-0.146,0.078,0.2265
-0.1455,0.0765,0.2265
-0.1405,0.078,0.2245
-0.141,0.0785,0.2295
-0.142,0.077,0.2315
-0.142,0.077,0.224
-0.146,0.076,0.2195
-0.144,0.074,0.222
-0.1435,0.073,0.226
-0.145,0.076,0.228
-0.147,0.0755,0.2275
-0.143,0.077,0.2315
-0.1395,0.0765,0.2265
-0.1425,0.0745,0.2215
-0.1455,0.075,0.2225
-0.1455,0.0735,0.2215
-0.1425,0.075,0.2225
-0.14,0.076,0.2215
-0.1405,0.0745,0.2185
-0.143,0.074,0.2155
-0.141,0.075,0.2205
-0.1415,0.073,0.219
-0.144,0.073,0.2155
-0.1415,0.076,0.216
-0.143,0.0765,0.213
-0.146,0.075,0.2125
-0.147,0.0735,0.2105
-0.148,0.0735,0.212
-0.1515,0.0725,0.2145
-0.1525,0.07,0.2165
-0.153,0.0705,0.218
-0.1545,0.0705,0.221
-0.1535,0.0705,0.2245
-0.151,0.071,0.223
-0.1465,0.071,0.2205
-0.1485,0.0705,0.2215
-0.1485,0.071,0.2205
-0.1465,0.074,0.219
-0.1465,0.0745,0.2175
-0.145,0.074,0.2155
-0.1485,0.073,0.212
-0.149,0.0725,0.208
-0.149,0.0735,0.208
-0.149,0.072,0.2085
-0.143,0.0725,0.214
-0.141,0.0735,0.212
-0.145,0.0715,0.21
-0.148,0.07,0.2145
-0.1505,0.068,0.216
-0.1525,0.069,0.216
-0.154,0.071,0.214
-0.1545,0.07,0.217
-0.1545,0.0695,0.2205
-0.1565,0.0675,0.2245
-0.152,0.0675,0.2225
-0.15,0.072,0.221
-0.148,0.0725,0.222
-0.1475,0.0725,0.2195
-0.1475,0.0735,0.2215
-0.147,0.072,0.22
-0.151,0.0725,0.219
-0.15,0.071,0.218
-0.152,0.0685,0.216
-0.155,0.0715,0.216
-0.156,0.0715,0.2135
-0.157,0.069,0.2135
-0.153,0.07,0.215
-0.1525,0.069,0.216
-0.1545,0.0685,0.218
-0.1545,0.0695,0.2205
-0.153,0.069,0.22
-0.153,0.067,0.219
-0.157,0.068,0.219
-0.1605,0.0655,0.219
-0.162,0.065,0.2145
-0.1635,0.0665,0.215
-0.1645,0.064,0.2185
-0.161,0.0675,0.2185
-0.1555,0.067,0.219
-0.1545,0.066,0.221
-0.1565,0.0685,0.221
-0.15,0.0675,0.2145
-0.147,0.0675,0.207
-0.1525,0.0665,0.2105
-0.1505,0.068,0.2135
-0.1565,0.067,0.2055
-0.1575,0.0675,0.2075
-0.15,0.068,0.209
-0.1525,0.0665,0.2095
-0.1565,0.068,0.2115
-0.1575,0.067,0.2095
-0.1575,0.066,0.214
-0.16,0.0665,0.215
-0.163,0.065,0.214
-0.16,0.0645,0.2155
-0.1545,0.0665,0.2205
-0.1535,0.067,0.2235
-0.1545,0.0665,0.224
-0.1505,0.067,0.224
-0.1505,0.0665,0.2205
-0.1545,0.064,0.218
-0.153,0.0645,0.218
-0.148,0.067,0.218
-0.1495,0.067,0.218
-0.1555,0.0655,0.219
-0.1565,0.0655,0.2155
-0.159,0.065,0.214
-0.1575,0.065,0.212
-0.1555,0.0655,0.208
-0.158,0.0645,0.211
-0.1555,0.0655,0.2125
-0.155,0.0655,0.216
-0.156,0.0665,0.2215
-0.155,0.067,0.222
-0.159,0.0635,0.219
-0.16,0.063,0.2225
-0.1595,0.0645,0.2245
-0.1625,0.066,0.219
-0.1585,0.0665,0.2165
-0.1545,0.066,0.215
-0.1555,0.064,0.2155
-0.158,0.0655,0.217
-0.159,0.067,0.2225
-0.156,0.065,0.2235
-0.156,0.0645,0.2195
-0.1575,0.065,0.2165
-0.1555,0.0655,0.217
-0.1535,0.066,0.216
-0.1545,0.0645,0.214
-0.1535,0.065,0.2165
-0.151,0.067,0.216
-0.153,0.067,0.217
-0.1535,0.067,0.2155
-0.153,0.0675,0.211
-0.1545,0.0655,0.2075
-0.1545,0.068,0.2075
-0.1535,0.069,0.211
-0.1535,0.0685,0.215
-0.153,0.0685,0.214
-0.151,0.0675,0.209
-0.1525,0.0675,0.2095
-0.154,0.0665,0.209
-0.1565,0.0665,0.205
-0.159,0.0665,0.2045
-0.159,0.0645,0.206
-0.1555,0.0645,0.2045
-0.15,0.0645,0.2075
-0.1515,0.0635,0.211
-0.1515,0.0655,0.213
-0.1495,0.064,0.2155
-0.1515,0.065,0.215
-0.155,0.064,0.211
-0.157,0.063,0.2095
-0.1545,0.0645,0.212
-0.1535,0.0635,0.211
-0.1585,0.061,0.212
-0.1595,0.063,0.214
-0.1565,0.067,0.213
-0.1555,0.066,0.214
-0.154,0.067,0.2145
-0.154,0.0645,0.2145
-0.1535,0.066,0.2165
-0.1505,0.067,0.2175
-0.1505,0.0635,0.219
-0.1545,0.063,0.221
-0.1575,0.0625,0.218
-0.1535,0.0645,0.218
-0.1535,0.0655,0.2195
-0.156,0.064,0.2185
-0.1545,0.0635,0.223
-0.154,0.064,0.2245
-0.1515,0.065,0.2295
-0.153,0.066,0.23
-0.157,0.064,0.226
-0.1585,0.0625,0.2265
-0.1585,0.065,0.2275
-0.155,0.0665,0.228
-0.151,0.0675,0.226
-0.152,0.0675,0.22
-0.153,0.0675,0.2155
-0.1495,0.0695,0.2195
-0.1495,0.0695,0.217
-0.1525,0.0695,0.214
-0.1545,0.0695,0.214
-0.153,0.0695,0.214
-0.1525,0.0735,0.2155
-0.1535,0.0725,0.215
-0.151,0.071,0.2135
-0.1455,0.076,0.208
-0.1415,0.0775,0.2115
-0.147,0.079,0.213
-0.1445,0.082,0.2125
-0.1335,0.0865,0.213
-0.1295,0.089,0.2045
-0.1315,0.0905,0.2005
-0.133,0.0925,0.207
-0.1315,0.093,0.2175
-0.125,0.096,0.2245
-0.124,0.099,0.228
-0.126,0.102,0.235
-0.1195,0.106,0.2405
-0.114,0.11,0.241
-0.115,0.1115,0.2455
-0.1145,0.114,0.249
-0.112,0.1155,0.2555
-0.11,0.116,0.2625
-0.1085,0.12,0.2665
-0.103,0.125,0.2595
-0.097,0.131,0.253
-0.0995,0.131,0.2585
-0.094,0.136,0.258
-0.089,0.1415,0.263
-0.089,0.1415,0.267
-0.093,0.1385,0.2615
-0.0955,0.1365,0.2615
-0.094,0.14,0.2575
-0.1,0.1415,0.2515
-0.092,0.142,0.252
-0.089,0.1415,0.2525
-0.099,0.137,0.247
-0.1,0.135,0.2455
-0.0995,0.135,0.2415
-0.0995,0.134,0.235
-0.0975,0.137,0.2375
-0.0905,0.1405,0.2335
-0.0855,0.141,0.2325
-0.085,0.1395,0.227
-0.0855,0.1395,0.219
-0.085,0.1385,0.2225
-0.0815,0.1375,0.229
-0.082,0.138,0.235
-0.082,0.1385,0.2365
-0.082,0.1365,0.2355
-0.0925,0.1315,0.2285
-0.1045,0.126,0.22
-0.1095,0.1195,0.2225
-0.108,0.118,0.2275
-0.108,0.115,0.2305
-0.1135,0.1105,0.229
-0.121,0.1075,0.227
-0.1275,0.102,0.227
-0.1235,0.102,0.222
-0.124,0.103,0.2225
-0.1265,0.1,0.229
-0.122,0.1,0.2305
-0.129,0.0975,0.2225
-0.1325,0.0965,0.2205
-0.1265,0.0965,0.2235
-0.128,0.0925,0.2195
-0.1275,0.09,0.2165
-0.1205,0.0955,0.217
-0.116,0.1005,0.2195
-0.113,0.101,0.211
-0.1075,0.103,0.206
-0.1005,0.107,0.209
-0.0965,0.11,0.2095
-0.095,0.113,0.2135
-0.0925,0.1125,0.2185
-0.094,0.1085,0.2215
-0.096,0.1075,0.2155
-0.092,0.109,0.2115
-0.09,0.11,0.216
-0.09,0.108,0.2185
-0.092,0.105,0.2195
-0.0955,0.105,0.215
-0.0995,0.1035,0.213
-0.102,0.1015,0.211
-0.103,0.1015,0.207
-0.1005,0.101,0.21
-0.101,0.1005,0.213
-0.1025,0.0995,0.2105
-0.1025,0.097,0.211
-0.1085,0.0925,0.21
-0.1095,0.0925,0.2045
-0.1085,0.092,0.2025
-0.116,0.087,0.201
-0.13,0.079,0.1965
-0.137,0.0745,0.193
-0.1355,0.074,0.192
-0.1415,0.068,0.1905
-0.1555,0.058,0.1875
-0.1615,0.0535,0.1825
-0.1665,0.054,0.18
-0.1725,0.0525,0.173
-0.1675,0.0535,0.1705
-0.171,0.052,0.1735
-0.1775,0.0505,0.1705
-0.178,0.051,0.176
-0.1765,0.053,0.184
-0.1715,0.0565,0.1865
-0.1745,0.056,0.1825
-0.174,0.056,0.1845
-0.1715,0.055,0.188
-0.1745,0.054,0.1835
-0.1745,0.0555,0.182
-0.1725,0.0565,0.185
-0.174,0.0555,0.1865
-0.1775,0.054,0.1825
-0.18,0.051,0.1805
-0.1735,0.053,0.179
-0.169,0.056,0.184
-0.1715,0.053,0.189
-0.1715,0.0525,0.185
-0.1755,0.052,0.1845
-0.1775,0.053,0.1835
-0.1765,0.0525,0.1825
-0.1755,0.0505,0.1855
-0.1715,0.052,0.1915
-0.1675,0.0555,0.1915
-0.171,0.0545,0.188
-0.1745,0.0545,0.188
-0.174,0.056,0.1915
-0.177,0.0535,0.19
-0.1795,0.053,0.1815
-0.176,0.0535,0.1835
-0.172,0.0545,0.187
-0.1745,0.053,0.1885
-0.174,0.0525,0.189
-0.163,0.055,0.185
-0.163,0.055,0.1815
-0.165,0.0565,0.1815
-0.166,0.056,0.184
-0.176,0.0545,0.178
-0.1805,0.052,0.1825
-0.18,0.0515,0.1875
-0.175,0.0535,0.1865
-0.168,0.056,0.1875
-0.169,0.0545,0.191
-0.1755,0.0515,0.1965
-0.1785,0.053,0.2015
-0.1725,0.0535,0.209
-0.171,0.055,0.206
-0.171,0.057,0.206
-0.172,0.056,0.2095
-0.178,0.054,0.2075
-0.1735,0.0545,0.211
-0.1735,0.0565,0.21
-0.175,0.0565,0.21
-0.174,0.0565,0.21
-0.175,0.0555,0.206
-0.174,0.0535,0.206
-0.18,0.0525,0.201
-0.183,0.0515,0.197
-0.1815,0.051,0.1975
-0.1775,0.0505,0.2005
-0.177,0.0485,0.201
-0.1815,0.0455,0.2025
-0.177,0.0435,0.21
-0.1775,0.0405,0.2105
-0.1875,0.033,0.21
-0.1895,0.0265,0.2115
-0.198,0.0175,0.2145
-0.2125,0.0025,0.2185
-0.231,-0.0105,0.2215
-0.2495,-0.023,0.2285
-0.25,-0.0305,0.2365
-0.255,-0.0365,0.2395
-0.2685,-0.05,0.231
-0.2815,-0.063,0.2245
-0.289,-0.077,0.2155
-0.289,-0.0935,0.207
-0.289,-0.106,0.194
-0.2895,-0.1095,0.18
-0.299,-0.1135,0.1765
-0.294,-0.1125,0.175
-0.2875,-0.0995,0.1865
-0.2775,-0.082,0.1935
-0.2465,-0.0515,0.1965
-0.222,-0.017,0.214
-0.189,0.0265,0.232
-0.146,0.084,0.241
-0.0965,0.147,0.2525
-0.0425,0.2105,0.2595
0.0095,0.276,0.267
0.065,0.3465,0.2835
0.1175,0.4185,0.295
0.172,0.4975,0.3215
0.2315,0.5945,0.3645
0.293,0.7,0.415
0.3525,0.795,0.48
0.391,0.882,0.5465
0.4175,0.966,0.61
0.449,1.0525,0.6925
0.476,1.1325,0.7755
0.5025,1.2035,0.848
0.516,1.273,0.92
0.528,1.3385,0.9905
0.541,1.3995,1.071
0.5585,1.4795,1.1545
0.579,1.5495,1.198
0.573,1.585,1.2205
0.5545,1.606,1.2465
0.526,1.5955,1.246
0.485,1.547,1.2185
0.4395,1.472,1.1635
0.3985,1.3845,1.0805
0.373,1.294,0.977
0.3485,1.2095,0.8965
0.317,1.139,0.84
0.278,1.0655,0.8025
0.2445,1.0,0.779
0.2145,0.9365,0.7425
0.176,0.86,0.699
0.1285,0.782,0.662
0.069,0.6905,0.64
0.012,0.588,0.612
-0.0315,0.4955,0.591
-0.066,0.4095,0.5595
-0.094,0.3285,0.5155
-0.1285,0.2525,0.4755
-0.182,0.1595,0.4305
-0.2195,0.087,0.391
-0.221,0.059,0.359
-0.216,0.0405,0.3255
-0.22,0.0195,0.286
-0.2205,-0.0045,0.2515
-0.2255,-0.0305,0.22
-0.23,-0.0455,0.196
-0.2225,-0.0525,0.1705
-0.218,-0.053,0.146
-0.214,-0.046,0.138
-0.2055,-0.039,0.1335
-0.199,-0.0315,0.1335
-0.1985,-0.021,0.1435
-0.1915,-0.0075,0.1545
-0.1875,0.0035,0.1615
-0.1845,0.013,0.1695
-0.1785,0.023,0.1755
-0.1795,0.031,0.183
-0.1785,0.037,0.19
-0.178,0.044,0.1975
-0.178,0.054,0.209
-0.1775,0.064,0.2225
-0.1745,0.0725,0.2395
-0.165,0.082,0.25
-0.155,0.09,0.261
-0.155,0.091,0.2655
-0.154,0.0955,0.2645
-0.146,0.099,0.267
-0.141,0.0985,0.2635
-0.1375,0.1,0.265
-0.142,0.097,0.2645
-0.1445,0.096,0.2615
-0.147,0.0955,0.2625
-0.1445,0.094,0.2625
-0.138,0.0955,0.2655
-0.141,0.0955,0.2645
-0.1495,0.093,0.2595
-0.1525,0.0925,0.2585
-0.151,0.093,0.2585
-0.1555,0.0945,0.253
-0.1575,0.095,0.252
-0.1505,0.0935,0.252
-0.1405,0.097,0.25
-0.146,0.096,0.2525
-0.15,0.0955,0.253
-0.156,0.094,0.253
-0.1605,0.094,0.254
-0.155,0.098,0.2555
-0.1495,0.1005,0.252
-0.1375,0.1055,0.2465
-0.1345,0.106,0.2505
-0.1375,0.1045,0.2555
-0.135,0.107,0.257
-0.1335,0.107,0.256
-0.141,0.1045,0.2595
-0.145,0.106,0.2625
-0.1455,0.103,0.26
-0.1525,0.102,0.2615
-0.15,0.1075,0.2585
-0.148,0.1075,0.2565
-0.1455,0.1095,0.253
-0.141,0.11,0.257
-0.14,0.114,0.2635
-0.1365,0.119,0.259
-0.1315,0.1165,0.262
-0.1305,0.117,0.2645
-0.13,0.1195,0.264
-0.1225,0.1225,0.265
-0.129,0.1245,0.258
-0.1325,0.123,0.2575
-0.1245,0.1225,0.2645
-0.1275,0.123,0.26
-0.1245,0.1265,0.2595
-0.1285,0.127,0.262
-0.1295,0.126,0.2585
-0.134,0.129,0.2605
-0.1405,0.129,0.2625
-0.1335,0.129,0.2625
-0.1315,0.1305,0.264
-0.1305,0.1315,0.2645
-0.127,0.1335,0.267
-0.1255,0.1315,0.2705
-0.1245,0.1325,0.268
-0.1235,0.1345,0.267
-0.122,0.1335,0.269
-0.118,0.1335,0.2675
-0.1185,0.1345,0.266
-0.123,0.135,0.2655
-0.1225,0.133,0.266
-0.1195,0.135,0.265
-0.1175,0.136,0.263
-0.1195,0.136,0.264
-0.122,0.135,0.262
-0.121,0.137,0.2605
-0.1195,0.1405,0.2585
-0.121,0.141,0.2535
-0.1205,0.1405,0.2565
-0.1135,0.1395,0.2645
-0.1165,0.14,0.266
-0.1195,0.1415,0.261
-0.1115,0.1445,0.267
-0.118,0.142,0.2695
-0.1225,0.142,0.263
-0.1165,0.1455,0.264
-0.113,0.1475,0.2655
-0.1155,0.1495,0.2685
-0.123,0.1485,0.266
-0.119,0.148,0.265
-0.115,0.1505,0.2695
-0.1155,0.152,0.2625
-0.1135,0.1545,0.2575
-0.113,0.1565,0.257
-0.107,0.1585,0.263
-0.1015,0.1645,0.271
-0.1,0.164,0.267
-0.0995,0.162,0.2615
-0.0995,0.164,0.263
-0.0995,0.165,0.27
-0.1025,0.165,0.2725
-0.0985,0.1685,0.2735
-0.0955,0.17,0.2795
-0.099,0.169,0.2795
-0.0995,0.1695,0.2765
-0.097,0.1705,0.2745
-0.094,0.177,0.273
-0.092,0.177,0.271
-0.096,0.175,0.2675
-0.097,0.1775,0.269
-0.0905,0.1785,0.2725
-0.0905,0.1805,0.2695
-0.0935,0.1815,0.27
-0.082,0.1845,0.2785
-0.0745,0.1855,0.2825
-0.0815,0.1875,0.28
-0.0785,0.1935,0.2785
-0.0755,0.1935,0.28
-0.075,0.1915,0.2835
-0.0765,0.193,0.285
-0.075,0.2,0.2855
-0.071,0.205,0.2865
-0.0745,0.2065,0.2885
-0.0695,0.208,0.293
-0.0645,0.2105,0.2935
-0.067,0.213,0.293
-0.069,0.217,0.2905
-0.066,0.22,0.2895
-0.063,0.221,0.294
-0.064,0.2235,0.287
-0.061,0.2245,0.281
-0.0555,0.2285,0.281
-0.0555,0.232,0.2855
-0.058,0.2325,0.2915
-0.0515,0.2355,0.2895
-0.044,0.2375,0.289
-0.0435,0.241,0.2965
-0.0405,0.245,0.3055
-0.036,0.2505,0.3085
-0.0325,0.257,0.313
-0.034,0.2585,0.3165
-0.0345,0.2605,0.312
-0.0275,0.2645,0.313
-0.028,0.266,0.319
-0.0325,0.267,0.319
-0.028,0.272,0.318
-0.0255,0.277,0.3245
-0.028,0.2795,0.3225
-0.0225,0.283,0.32
-0.021,0.2855,0.3165
-0.019,0.289,0.3165
-0.0095,0.2925,0.325
-0.0075,0.294,0.321
0.001,0.3025,0.3305
0.0,0.306,0.338
-0.007,0.3035,0.3375
-0.004,0.308,0.343
-0.006,0.3105,0.3445
0.0075,0.3165,0.346
0.0115,0.3215,0.3455
0.011,0.3245,0.3495
0.0195,0.331,0.3495
0.015,0.3345,0.3505
0.017,0.3395,0.355
0.0245,0.344,0.357
0.03,0.3495,0.356
0.031,0.353,0.3595
0.035,0.356,0.369
0.0395,0.3635,0.363
0.039,0.367,0.36
0.043,0.37,0.3585
0.0455,0.375,0.355
0.046,0.3785,0.3585
0.0475,0.3825,0.3585
0.055,0.388,0.3615
0.059,0.394,0.3655
0.0565,0.399,0.3705
0.0645,0.401,0.379
0.071,0.404,0.375
0.0675,0.4085,0.37
0.0695,0.412,0.3735
0.0745,0.4155,0.3785
0.072,0.414,0.387
0.07,0.415,0.391
0.073,0.421,0.3895
0.071,0.4225,0.3885
0.074,0.426,0.394
0.0725,0.4255,0.3935
0.0685,0.4275,0.3885
0.08,0.4355,0.3875
0.0825,0.4385,0.387
0.082,0.4405,0.391
0.0855,0.4415,0.3915
0.09,0.444,0.394
0.091,0.445,0.401
0.0915,0.444,0.4025
0.0915,0.4455,0.393
0.089,0.447,0.3905
0.089,0.4485,0.397
0.088,0.4495,0.406
0.088,0.4515,0.4075
0.0885,0.4515,0.4035
0.095,0.4545,0.4105
0.0925,0.4565,0.4105
0.086,0.4555,0.4075
0.088,0.455,0.409
0.0945,0.4565,0.4145
0.097,0.458,0.4135
0.093,0.456,0.412
0.093,0.4565,0.4145
0.092,0.4585,0.4105
0.087,0.457,0.407
0.089,0.456,0.4065
0.09,0.4545,0.4075
0.0845,0.4515,0.402
0.082,0.4495,0.3985
0.086,0.4475,0.4015
0.0845,0.445,0.3995
0.073,0.44,0.4
0.0705,0.4355,0.4035
0.07,0.4335,0.401
0.0675,0.432,0.3995
0.0685,0.428,0.4025
0.068,0.421,0.401
0.068,0.4175,0.404
0.0615,0.4105,0.4
0.049,0.4005,0.394
0.04,0.394,0.3985
0.035,0.3895,0.3895
0.026,0.384,0.3825
0.0245,0.379,0.3805
0.0265,0.376,0.3745
0.022,0.371,0.379
0.02,0.364,0.3735
0.013,0.3555,0.3685
0.0125,0.3515,0.3725
0.011,0.346,0.365
0.001,0.338,0.357
-0.002,0.3335,0.353
-0.0015,0.3285,0.35
-0.009,0.322,0.349
-0.0215,0.3145,0.344
-0.021,0.31,0.34
-0.023,0.301,0.3405
-0.0285,0.2935,0.336
-0.0275,0.29,0.33
-0.0325,0.286,0.3265
-0.0395,0.279,0.32
-0.043,0.273,0.3165
-0.0465,0.268,0.3105
-0.0555,0.26,0.3055
-0.056,0.254,0.3035
-0.061,0.2465,0.2945
-0.0655,0.242,0.2905
-0.0615,0.237,0.289
-0.0735,0.225,0.284
-0.076,0.219,0.2805
-0.076,0.2165,0.2765
-0.0845,0.21,0.2765
-0.086,0.205,0.277
-0.0855,0.201,0.2715
-0.0865,0.1995,0.273
-0.0925,0.195,0.278
-0.101,0.184,0.281
-0.1095,0.1785,0.276
-0.114,0.176,0.2655
-0.102,0.1755,0.265
-0.1005,0.1735,0.2615
-0.1115,0.167,0.2535
-0.106,0.169,0.2475
-0.111,0.165,0.2395
-0.1205,0.1575,0.2395
-0.116,0.1575,0.238
-0.114,0.157,0.2345
-0.1075,0.154,0.2395
-0.108,0.1515,0.242
-0.118,0.149,0.2355
-0.125,0.143,0.2345
-0.127,0.1425,0.2435
-0.1175,0.1465,0.2475
-0.1165,0.145,0.25
-0.1235,0.142,0.242
-0.128,0.143,0.236
-0.134,0.141,0.24
-0.1325,0.14,0.241
-0.1345,0.1385,0.237
-0.1345,0.1395,0.2375
-0.1355,0.1395,0.237
-0.1315,0.139,0.228
-0.1195,0.142,0.2245
-0.134,0.135,0.2225
-0.14,0.1295,0.224
-0.1335,0.131,0.2225
-0.132,0.1315,0.225
-0.1335,0.131,0.228
-0.128,0.13,0.228
-0.1225,0.13,0.2315
-0.126,0.1315,0.2295
-0.1235,0.1305,0.235
-0.1285,0.1275,0.234
-0.1315,0.1285,0.229
-0.1305,0.1275,0.2305
-0.129,0.128,0.226
-0.1285,0.1285,0.2205
-0.1325,0.1285,0.2235
-0.1315,0.13,0.2215
-0.1295,0.131,0.223
-0.1315,0.1315,0.2245
-0.1405,0.1275,0.2205
-0.135,0.129,0.2205
-0.1305,0.13,0.2145
-0.135,0.128,0.2185
-0.136,0.1285,0.2175
-0.138,0.127,0.2135
-0.1315,0.1285,0.2155
-0.131,0.1285,0.214
-0.1345,0.1295,0.2115
-0.1335,0.1285,0.2085
-0.1325,0.127,0.216
-0.1325,0.1285,0.2135
-0.1315,0.1295,0.2125
-0.134,0.132,0.2125
-0.132,0.133,0.2045
-0.1355,0.1315,0.213
-0.1395,0.1275,0.2135
-0.129,0.1285,0.213
-0.1335,0.13,0.22
-0.14,0.1275,0.217
-0.134,0.13,0.218
-0.1285,0.1305,0.218
-0.1315,0.13,0.219
-0.1355,0.1285,0.223
-0.1335,0.128,0.224
-0.1355,0.129,0.2255
-0.136,0.128,0.2195
-0.1335,0.1305,0.2205
-0.134,0.1295,0.2225
-0.133,0.129,0.217
-0.1315,0.1275,0.2195
-0.133,0.1265,0.221
-0.1355,0.1275,0.221
-0.144,0.127,0.2205
-0.1435,0.1315,0.2195
-0.132,0.135,0.2205
-0.1355,0.1365,0.217
-0.1385,0.1375,0.2175
-0.1305,0.138,0.2225
-0.1265,0.138,0.222
-0.129,0.137,0.2215
-0.1255,0.136,0.2225
-0.1285,0.1335,0.219
-0.1345,0.132,0.217
-0.1315,0.131,0.2155
-0.128,0.1335,0.217
-0.126,0.1315,0.221
-0.1375,0.13,0.216
-0.149,0.131,0.211
-0.1375,0.132,0.2155
-0.128,0.1335,0.223
-0.136,0.1285,0.2215
-0.133,0.1305,0.2215
-0.131,0.134,0.2225
-0.1345,0.1355,0.2195
-0.133,0.1315,0.2215
-0.1305,0.1305,0.2225
-0.13,0.1335,0.223
-0.136,0.1265,0.2285
-0.136,0.1265,0.227
-0.1325,0.127,0.2275
-0.1335,0.1255,0.231
-0.133,0.1265,0.2295
-0.1325,0.126,0.2325
-0.134,0.1255,0.2245
-0.1335,0.1265,0.217
-0.13,0.13,0.225
-0.1345,0.128,0.2255
-0.1345,0.1285,0.2265
-0.127,0.1335,0.23
-0.131,0.132,0.228
-0.133,0.13,0.229
-0.128,0.1315,0.2325
-0.129,0.133,0.23
-0.1365,0.133,0.226
-0.136,0.132,0.226
-0.131,0.132,0.226
-0.128,0.1345,0.2245
-0.1265,0.134,0.225
-0.1245,0.1345,0.229
-0.123,0.134,0.23
-0.1255,0.1335,0.226
-0.1235,0.1365,0.2245
-0.124,0.135,0.229
-0.1265,0.1325,0.225
-0.1315,0.132,0.222
-0.1335,0.1315,0.222
-0.128,0.133,0.22
-0.1265,0.1325,0.221
-0.1305,0.13,0.2215
-0.134,0.132,0.2195
-0.1355,0.1285,0.22
-0.137,0.1265,0.222
-0.136,0.1275,0.2195
-0.1365,0.126,0.222
-0.1325,0.1265,0.2265
-0.127,0.126,0.228
-0.1335,0.1235,0.2245
-0.138,0.122,0.226
-0.134,0.123,0.2265
-0.135,0.12,0.223
-0.139,0.115,0.2235
-0.134,0.118,0.2255
-0.1345,0.118,0.2275
-0.1365,0.1155,0.2195
-0.1325,0.115,0.2195
-0.1365,0.1125,0.2245
-0.1425,0.1135,0.2275
-0.142,0.1115,0.2245
-0.143,0.112,0.2135
-0.1385,0.1155,0.216
-0.135,0.1155,0.2205
-0.1445,0.114,0.223
-0.1475,0.112,0.23
-0.14,0.1175,0.228
-0.1415,0.1185,0.23
-0.1385,0.117,0.231
-0.1285,0.12,0.2195
-0.129,0.1215,0.2195
-0.1275,0.1205,0.22
-0.125,0.123,0.2185
-0.1245,0.123,0.221
-0.1195,0.121,0.218
-0.12,0.122,0.2195
-0.13,0.1185,0.216
-0.1375,0.119,0.2135
-0.1355,0.1225,0.217
-0.1325,0.124,0.213
-0.1355,0.1235,0.2115
-0.132,0.1215,0.214
-0.1305,0.12,0.216
-0.134,0.119,0.217
-0.134,0.1185,0.215
-0.14,0.118,0.2115
-0.1385,0.1175,0.212
-0.1395,0.116,0.215
-0.1375,0.117,0.218
-0.133,0.1145,0.2195
-0.1365,0.116,0.2205
-0.1365,0.1155,0.2215
-0.133,0.1155,0.219
-0.136,0.118,0.2165
-0.1425,0.1145,0.2145
-0.141,0.1155,0.207
-0.136,0.115,0.2075
-0.1345,0.112,0.213
-0.134,0.115,0.2125
-0.141,0.116,0.2095
-0.1495,0.1115,0.204
-0.151,0.1115,0.1995
-0.1495,0.1155,0.2015
-0.1445,0.116,0.2075
-0.1405,0.1155,0.2065
-0.145,0.1145,0.2
-0.1465,0.111,0.201
-0.1445,0.1105,0.2075
-0.1425,0.112,0.2
-0.1375,0.111,0.1965
-0.14,0.109,0.198
-0.1375,0.111,0.195
-0.1335,0.111,0.1985
-0.141,0.1075,0.201
-0.1435,0.1095,0.1955
-0.138,0.1115,0.197
-0.14,0.107,0.1975
-0.142,0.106,0.195
-0.1365,0.109,0.1985
-0.1365,0.111,0.2015
-0.1405,0.1095,0.206
-0.143,0.1065,0.206
-0.1415,0.1065,0.2045
-0.1395,0.106,0.203
-0.142,0.106,0.202
-0.1425,0.1065,0.202
-0.1395,0.107,0.201
-0.139,0.106,0.2045
-0.141,0.105,0.2005
-0.138,0.107,0.193
-0.133,0.106,0.197
-0.1365,0.1085,0.191
-0.148,0.107,0.1865
-0.1505,0.104,0.188
-0.1415,0.1095,0.1865
-0.144,0.105,0.193
-0.1485,0.104,0.189
-0.146,0.109,0.185
-0.144,0.109,0.185
-0.1415,0.1105,0.183
-0.143,0.11,0.183
-0.1435,0.108,0.185
-0.1435,0.1075,0.1865
-0.144,0.106,0.1885
-0.142,0.106,0.191
-0.14,0.1075,0.1895
-0.142,0.1075,0.1925
-0.144,0.105,0.1895
-0.1435,0.1035,0.1865
-0.143,0.101,0.1875
-0.145,0.099,0.1875
-0.144,0.1005,0.1905
-0.1425,0.0985,0.1895
-0.142,0.098,0.1885
-0.1395,0.1015,0.1885
-0.141,0.0985,0.1895
-0.1415,0.096,0.189
-0.14,0.0995,0.185
-0.142,0.0975,0.185
-0.1415,0.097,0.186
-0.1425,0.1005,0.182
-0.1445,0.099,0.18
-0.143,0.0995,0.184
-0.143,0.1015,0.1845
-0.145,0.103,0.1825
-0.1465,0.105,0.1825
-0.1495,0.1045,0.1865
-0.143,0.1065,0.191
-0.1425,0.105,0.1905
-0.15,0.103,0.189
-0.149,0.1055,0.1885
-0.149,0.1085,0.1865
-0.14,0.113,0.1865
-0.1405,0.1125,0.181
-0.145,0.1125,0.1715
-0.139,0.1145,0.1735
-0.1375,0.1145,0.178
-0.134,0.115,0.1785
-0.137,0.1145,0.182
-0.1435,0.115,0.1785
-0.143,0.1165,0.1695
-0.1445,0.113,0.1685
-0.151,0.109,0.171
-0.1505,0.109,0.1725
-0.1465,0.1105,0.175
-0.1465,0.1115,0.1815
-0.148,0.1095,0.1865
-0.143,0.11,0.1865
-0.1405,0.11,0.1815
-0.1455,0.108,0.181
-0.1405,0.112,0.188
-0.1345,0.1135,0.191
-0.1405,0.1115,0.1915
-0.144,0.1095,0.1885
-0.145,0.1075,0.1855
-0.151,0.1045,0.1825
-0.15,0.1015,0.1845
-0.149,0.1005,0.1825
-0.149,0.1005,0.176
-0.1475,0.1015,0.1785
-0.15,0.1045,0.1755
-0.149,0.1045,0.1755
-0.15,0.1025,0.18
-0.1465,0.103,0.1865
-0.1515,0.1005,0.191
-0.147,0.1015,0.1885
-0.1425,0.102,0.1925
-0.1545,0.0985,0.192
-0.1485,0.1025,0.191
-0.147,0.103,0.189
-0.147,0.0995,0.1905
-0.1515,0.1,0.1915
-0.153,0.098,0.189
-0.15,0.097,0.1875
-0.1545,0.0985,0.1865
-0.1515,0.0995,0.181
-0.152,0.101,0.175
-0.1455,0.102,0.1875
-0.141,0.103,0.1925
-0.144,0.1045,0.192
-0.141,0.1055,0.192
-0.143,0.107,0.184
-0.144,0.1075,0.182
-0.147,0.1035,0.1855
-0.154,0.102,0.191
-0.1555,0.1025,0.191
-0.1555,0.1035,0.189
-0.1555,0.104,0.19
-0.149,0.105,0.194
-0.1475,0.107,0.1945
-0.1455,0.1085,0.197
-0.14,0.1125,0.1975
-0.14,0.1125,0.193
-0.1405,0.1095,0.192
-0.1355,0.1095,0.1845
-0.1305,0.107,0.181
-0.1435,0.1055,0.1745
-0.149,0.1065,0.1735
-0.1475,0.1035,0.1795
-0.1525,0.104,0.175
-0.1495,0.1055,0.1735
-0.1475,0.105,0.1755
-0.149,0.1045,0.178
-0.1515,0.1025,0.1735
-0.153,0.105,0.1695
-0.147,0.107,0.178
-0.141,0.1055,0.1845
-0.1385,0.1075,0.1855
-0.139,0.1085,0.1865
-0.1385,0.109,0.186
-0.1405,0.107,0.1875
-0.1405,0.106,0.192
-0.14,0.1055,0.1905
-0.1445,0.1045,0.1905
-0.143,0.103,0.19
-0.142,0.1005,0.1915
-0.1475,0.1005,0.19
-0.1465,0.0985,0.1885
-0.1435,0.0985,0.1865
-0.144,0.097,0.1875
-0.1445,0.0945,0.192
-0.143,0.096,0.1915
-0.1455,0.0955,0.193
-0.1465,0.0955,0.1925
-0.1385,0.0995,0.196
-0.1375,0.104,0.1995
-0.1495,0.103,0.194
-0.156,0.101,0.189
-0.149,0.104,0.183
-0.147,0.104,0.1795
-0.151,0.1045,0.18
-0.1485,0.105,0.1815
-0.145,0.1065,0.1855
-0.1405,0.1115,0.18
-0.14,0.109,0.1725
-0.1405,0.1085,0.176
-0.146,0.109,0.178
-0.15,0.109,0.179
-0.139,0.1165,0.182
-0.1285,0.124,0.1775
-0.131,0.123,0.1755
-0.1255,0.124,0.177
-0.1235,0.1315,0.1805
-0.1175,0.138,0.193
-0.107,0.1405,0.202
-0.1125,0.142,0.2045
-0.1135,0.143,0.2085
-0.1115,0.145,0.213
-0.103,0.1505,0.217
-0.1,0.15,0.2215
-0.1105,0.15,0.217
-0.1115,0.1545,0.2195
-0.105,0.1555,0.2205
-0.099,0.1575,0.2185
-0.0955,0.1605,0.222
-0.092,0.162,0.2215
-0.084,0.1635,0.2215
-0.081,0.167,0.223
-0.0865,0.1695,0.223
-0.0885,0.1685,0.2225
-0.09,0.166,0.2235
-0.0955,0.164,0.2215
-0.098,0.165,0.216
-0.0945,0.168,0.2175
-0.093,0.1675,0.216
-0.097,0.168,0.2115
-0.0975,0.164,0.215
-0.1015,0.164,0.212
-0.097,0.1685,0.2105
-0.0955,0.1685,0.2115
-0.0975,0.17,0.2085
-0.0875,0.173,0.209
-0.091,0.174,0.206
-0.0985,0.1695,0.1995
-0.0985,0.171,0.1905
-0.091,0.1735,0.1915
-0.083,0.171,0.199
-0.077,0.174,0.205
-0.0825,0.173,0.2025
-0.0855,0.1745,0.1965
-0.0765,0.175,0.198
-0.081,0.17,0.195
-0.094,0.168,0.188
-0.104,0.162,0.1955
-0.107,0.158,0.2025
-0.1145,0.154,0.1995
-0.115,0.1545,0.202
-0.1135,0.1555,0.2
-0.1205,0.1505,0.1965
-0.1225,0.1475,0.1965
-0.1195,0.1455,0.202
-0.119,0.142,0.203
-0.12,0.1395,0.197
-0.119,0.1425,0.1855
-0.1195,0.1395,0.183
-0.1165,0.1345,0.1935
-0.119,0.1325,0.1845
-0.1135,0.1345,0.1825
-0.108,0.136,0.1915
-0.11,0.1355,0.1905
-0.0965,0.14,0.1905
-0.0915,0.143,0.1885
-0.0895,0.1445,0.1915
-0.088,0.146,0.1995
-0.095,0.1445,0.204
-0.0945,0.1425,0.205
-0.093,0.1425,0.2025
-0.093,0.142,0.207
-0.0925,0.1425,0.2035
-0.096,0.141,0.1945
-0.102,0.1375,0.198
-0.099,0.1395,0.1915
-0.095,0.1415,0.191
-0.097,0.143,0.1945
-0.096,0.143,0.1915
-0.098,0.14,0.194
-0.0965,0.139,0.1985
-0.089,0.14,0.1995
-0.0925,0.139,0.195
-0.0985,0.1355,0.185
-0.099,0.134,0.175
-0.1085,0.13,0.172
-0.1135,0.1215,0.1725
-0.113,0.1165,0.176
-0.1195,0.1115,0.181
-0.1295,0.104,0.179
-0.143,0.098,0.1665
-0.152,0.0895,0.163
-0.163,0.084,0.166
-0.163,0.085,0.163
-0.16,0.0835,0.1645
-0.161,0.0855,0.167
-0.16,0.0865,0.168
-0.1605,0.085,0.1685
-0.1575,0.085,0.1715
-0.161,0.0845,0.1755
-0.16,0.086,0.174
-0.164,0.0865,0.1665
-0.1655,0.0875,0.167
-0.16,0.0895,0.172
-0.1695,0.0885,0.169
-0.1775,0.0855,0.167
-0.1715,0.087,0.1705
-0.173,0.086,0.1735
-0.1745,0.0825,0.1775
-0.169,0.082,0.1755
-0.17,0.082,0.1745
-0.1695,0.083,0.1745
-0.1755,0.0815,0.171
-0.1695,0.0835,0.171
-0.166,0.087,0.174
-0.174,0.0885,0.179
-0.1645,0.092,0.1825
-0.158,0.092,0.1845
-0.1605,0.0925,0.1795
-0.162,0.09,0.176
-0.1625,0.0875,0.174
-0.158,0.09,0.175
-0.1465,0.092,0.1765
-0.146,0.093,0.1765
-0.153,0.092,0.1805
-0.1615,0.0895,0.183
-0.1665,0.0855,0.185
-0.1635,0.0845,0.1885
-0.161,0.087,0.189
-0.1585,0.09,0.1835
-0.1595,0.088,0.185
-0.1615,0.0875,0.1855
-0.1655,0.089,0.184
-0.1675,0.0895,0.186
-0.164,0.091,0.1865
-0.169,0.0875,0.185
-0.165,0.088,0.187
-0.151,0.092,0.1875
-0.156,0.0915,0.183
-0.1585,0.0915,0.1835
-0.1585,0.091,0.178
-0.1575,0.093,0.18
-0.154,0.0955,0.189
-0.1575,0.096,0.1855
-0.1535,0.0965,0.182
-0.15,0.096,0.181
-0.1505,0.097,0.1855
-0.1565,0.095,0.192
-0.153,0.0965,0.1925
-0.149,0.0985,0.1955
-0.1555,0.0975,0.198
-0.1525,0.096,0.198
-0.1585,0.092,0.194
-0.1565,0.094,0.1925
-0.155,0.0935,0.1995
-0.1635,0.092,0.2005
-0.1635,0.0915,0.2005
-0.1645,0.086,0.2
-0.1665,0.0805,0.201
-0.1715,0.073,0.2
-0.1715,0.068,0.197
-0.1745,0.0595,0.204
-0.191,0.0465,0.2105
-0.2045,0.034,0.21
-0.218,0.019,0.2065
-0.233,0.0065,0.2125
-0.2375,-0.0045,0.213
-0.2435,-0.0165,0.208
-0.2515,-0.0295,0.209
-0.2595,-0.0395,0.204
-0.2655,-0.055,0.1975
-0.269,-0.0745,0.1825
-0.27,-0.084,0.165
-0.2705,-0.088,0.162
-0.2685,-0.088,0.1535
-0.268,-0.0855,0.149
-0.2685,-0.081,0.156
-0.253,-0.064,0.155
-0.2385,-0.038,0.161
-0.2205,-0.004,0.179
-0.198,0.0365,0.1945
-0.152,0.0895,0.2095
-0.089,0.159,0.225
-0.0545,0.217,0.237
-0.0065,0.2815,0.25
0.0505,0.358,0.2585
0.094,0.427,0.2755
0.14,0.504,0.3065
0.2005,0.597,0.3515
0.2625,0.7005,0.3985
0.311,0.797,0.4505
0.352,0.895,0.5245
0.3855,0.9855,0.593
0.4185,1.0665,0.666
0.4415,1.1455,0.747
0.4705,1.2265,0.828
0.4865,1.3035,0.9065
0.4895,1.369,0.976
0.5045,1.4285,1.042
0.5115,1.4935,1.1285
0.5195,1.561,1.1835
0.518,1.6055,1.213
0.5015,1.6175,1.236
0.4815,1.596,1.2145
0.432,1.546,1.1865
0.3805,1.4665,1.129
0.3465,1.379,1.065
0.3225,1.2935,0.9705
0.306,1.2155,0.8705
0.2665,1.14,0.8165
0.2285,1.0655,0.7725
0.199,1.0025,0.758
0.17,0.9455,0.7365
0.131,0.872,0.7125
0.0765,0.7795,0.692
0.0285,0.6865,0.6575
-0.0265,0.579,0.62
-0.076,0.479,0.585
-0.103,0.4005,0.553
-0.133,0.313,0.521
-0.17,0.224,0.479
-0.2085,0.138,0.428
-0.233,0.087,0.3955
-0.2385,0.062,0.3665
-0.2375,0.034,0.3285
-0.2305,0.0195,0.292
-0.238,-0.011,0.251
-0.2435,-0.041,0.22
-0.243,-0.0615,0.195
-0.247,-0.0785,0.1685
-0.241,-0.078,0.1565
-0.2395,-0.074,0.144
-0.2275,-0.059,0.129
-0.2125,-0.039,0.128
-0.209,-0.025,0.135
-0.197,-0.0115,0.14
-0.1915,0.003,0.1455
-0.192,0.015,0.1515
-0.186,0.0255,0.1545
-0.184,0.035,0.1535
-0.1835,0.043,0.156
-0.1765,0.05,0.1775
-0.171,0.06,0.1895
-0.171,0.0725,0.193
-0.169,0.082,0.211
-0.1665,0.0895,0.22
-0.161,0.097,0.2285
-0.1525,0.105,0.2465
-0.146,0.112,0.2485
-0.1405,0.1175,0.2495
-0.138,0.121,0.258
-0.141,0.121,0.2595
-0.139,0.12,0.262
-0.139,0.1185,0.261
-0.141,0.118,0.259
-0.1355,0.123,0.257
-0.142,0.122,0.247
-0.139,0.122,0.2455
-0.1355,0.125,0.2485
-0.1405,0.1255,0.248
-0.135,0.1295,0.248
-0.1345,0.126,0.2495
-0.1355,0.125,0.251
-0.1405,0.1285,0.251
-0.1395,0.1295,0.25
-0.133,0.1285,0.2505
-0.1375,0.1255,0.2525
-0.1385,0.1275,0.2515
-0.139,0.1305,0.247
-0.139,0.133,0.243
-0.139,0.1325,0.243
-0.137,0.133,0.25
-0.13,0.1365,0.2515
-0.138,0.136,0.2455
-0.139,0.14,0.2445
-0.1305,0.143,0.2485
-0.131,0.1425,0.2515
-0.134,0.143,0.249
-0.1355,0.143,0.2485
-0.13,0.1475,0.2495
-0.1315,0.1465,0.25
-0.1365,0.1425,0.2455
-0.132,0.1455,0.249
-0.1265,0.1485,0.251
-0.1295,0.147,0.246
-0.1335,0.1475,0.2435
-0.1295,0.1505,0.242
-0.1315,0.149,0.2475
-0.13,0.151,0.2485
-0.1245,0.1525,0.2535
-0.1225,0.153,0.2575
-0.1195,0.156,0.2545
-0.1225,0.159,0.254
-0.1295,0.155,0.2535
-0.133,0.1495,0.256
-0.128,0.153,0.256
-0.1265,0.1565,0.2555
-0.1255,0.1585,0.254
-0.1215,0.1585,0.251
-0.124,0.1555,0.257
-0.1215,0.1565,0.2615
-0.115,0.159,0.2585
-0.113,0.16,0.2595
-0.108,0.1615,0.2625
-0.115,0.16,0.256
-0.1235,0.158,0.247
-0.1165,0.1585,0.2445
-0.115,0.157,0.248
-0.107,0.159,0.253
-0.106,0.161,0.2535
-0.113,0.16,0.2555
-0.114,0.162,0.2555
-0.1185,0.162,0.2535
-0.1135,0.1645,0.2565
-0.114,0.1665,0.261
-0.119,0.1645,0.263
-0.1175,0.167,0.2585
-0.109,0.173,0.2555
-0.104,0.1755,0.2565
-0.1125,0.1725,0.2545
-0.1145,0.1715,0.254
-0.109,0.176,0.251
-0.096,0.1815,0.2575
-0.0965,0.182,0.2635
-0.104,0.181,0.26
-0.0985,0.1845,0.254
-0.095,0.188,0.2555
-0.1,0.1865,0.2565
-0.1035,0.1865,0.251
-0.108,0.1855,0.252
-0.1115,0.185,0.26
-0.1035,0.188,0.2695
-0.109,0.187,0.2675
-0.113,0.1845,0.2615
-0.102,0.1895,0.261
-0.094,0.197,0.261
-0.095,0.1975,0.2605
-0.095,0.1985,0.2625
-0.091,0.1995,0.2655
-0.088,0.2,0.2635
-0.092,0.1995,0.2665
-0.0935,0.201,0.268
-0.0885,0.204,0.2665
-0.087,0.205,0.263
-0.0785,0.207,0.2625
-0.0785,0.208,0.268
-0.087,0.2065,0.269
-0.0845,0.2095,0.27
-0.085,0.212,0.267
-0.0875,0.2125,0.2665
-0.081,0.2145,0.275
-0.08,0.2155,0.278
-0.083,0.2185,0.278
-0.0785,0.2195,0.277
-0.0725,0.2215,0.2815
-0.0745,0.22,0.283
-0.0775,0.2225,0.281
-0.0765,0.226,0.2815
-0.0755,0.227,0.2745
-0.074,0.2295,0.2725
-0.071,0.229,0.276
-0.067,0.234,0.279
-0.0635,0.2375,0.2805
-0.0595,0.24,0.2775
-0.0555,0.2445,0.2705
-0.0535,0.246,0.2725
-0.0615,0.246,0.276
-0.064,0.2475,0.2745
-0.0575,0.2535,0.279
-0.058,0.257,0.2825
-0.054,0.2635,0.288
-0.047,0.2695,0.293
-0.046,0.2725,0.2925
-0.0425,0.2755,0.295
-0.043,0.278,0.294
-0.043,0.28,0.2925
-0.0365,0.2835,0.292
-0.038,0.2855,0.2895
-0.0365,0.29,0.2855
-0.0315,0.2935,0.286
-0.0285,0.2935,0.2915
-0.0245,0.297,0.295
-0.023,0.3005,0.299
-0.0245,0.3025,0.293
-0.025,0.3045,0.2905
-0.0175,0.3085,0.2945
-0.015,0.312,0.296
-0.0185,0.315,0.304
-0.0185,0.317,0.308
-0.017,0.3195,0.3055
-0.0115,0.3225,0.311
-0.006,0.3235,0.317
-0.002,0.327,0.3185
0.0005,0.3305,0.3155
-0.0005,0.334,0.317
0.0005,0.3365,0.3195
0.004,0.3415,0.3165
0.008,0.3465,0.3195
0.009,0.349,0.3175
0.012,0.353,0.3185
0.017,0.356,0.3185
0.019,0.362,0.3195
0.0255,0.369,0.3245
0.0315,0.372,0.325
0.0365,0.3775,0.328
0.0345,0.38,0.3315
0.032,0.3815,0.3375
0.04,0.3905,0.3425
0.043,0.396,0.3425
0.0425,0.401,0.341
0.0445,0.405,0.342
0.0485,0.407,0.3425
0.0505,0.411,0.345
0.055,0.414,0.352
0.0585,0.419,0.3565
0.0595,0.4225,0.361
0.0655,0.4285,0.364
0.0685,0.435,0.366
0.0685,0.436,0.361
0.0715,0.4405,0.3565
0.0755,0.4445,0.36
0.075,0.446,0.358
0.075,0.4505,0.3605
0.0755,0.453,0.361
0.0745,0.4555,0.36
0.076,0.4615,0.3625
0.08,0.464,0.361
0.0825,0.464,0.362
0.081,0.4665,0.364
0.0825,0.471,0.364
0.0835,0.472,0.3665
0.083,0.472,0.3695
0.082,0.4725,0.37
0.084,0.474,0.3755
0.088,0.4765,0.3765
0.092,0.477,0.38
0.096,0.479,0.3795
0.095,0.479,0.375
0.094,0.4785,0.3795
0.09,0.4765,0.375
0.086,0.4775,0.376
0.0885,0.481,0.381
0.0875,0.48,0.378
0.0905,0.48,0.377
0.0935,0.48,0.3755
0.093,0.4815,0.3765
0.092,0.4805,0.3815
0.088,0.48,0.3815
0.0875,0.482,0.3795
0.0865,0.4825,0.3795
0.081,0.4825,0.3815
0.0775,0.481,0.385
0.084,0.4785,0.382
0.085,0.4785,0.3815
0.0855,0.48,0.3855
0.0855,0.478,0.3905
0.085,0.4765,0.391
0.075,0.473,0.3865
0.072,0.468,0.384
0.074,0.462,0.3865
0.0745,0.4595,0.3855
0.0795,0.4585,0.3805
0.066,0.451,0.3795
0.064,0.448,0.381
0.0535,0.44,0.378
0.043,0.431,0.3745
0.0455,0.4295,0.3785
0.0425,0.426,0.379
0.0435,0.423,0.3765
0.0415,0.418,0.3745
0.0395,0.4115,0.3745
0.035,0.404,0.374
0.0265,0.3945,0.3625
0.0195,0.386,0.359
0.0155,0.3765,0.3605
0.009,0.3665,0.355
0.002,0.358,0.351
-0.0005,0.355,0.34
-0.002,0.348,0.331
-0.0065,0.339,0.328
-0.011,0.333,0.324
-0.0125,0.3245,0.32
-0.014,0.319,0.321
-0.0275,0.312,0.319
-0.033,0.305,0.309
-0.027,0.3015,0.3045
-0.03,0.296,0.307
-0.035,0.2885,0.3105
-0.0385,0.2815,0.31
-0.046,0.277,0.304
-0.051,0.271,0.2985
-0.0515,0.266,0.294
-0.0535,0.2625,0.291
-0.0565,0.258,0.289
-0.0585,0.2535,0.287
-0.0605,0.249,0.2855
-0.0675,0.2445,0.283
-0.0665,0.2395,0.277
-0.0695,0.234,0.2675
-0.0755,0.228,0.265
-0.0765,0.2235,0.2655
-0.08,0.2205,0.2655
-0.0825,0.2175,0.259
-0.0875,0.216,0.2555
-0.0895,0.21,0.2555
-0.0915,0.2055,0.2515
-0.095,0.202,0.2465
-0.099,0.198,0.246
-0.102,0.1945,0.2465
-0.102,0.1925,0.243
-0.106,0.192,0.244
-0.108,0.1865,0.242
-0.1085,0.1835,0.2405
-0.1115,0.181,0.243
-0.1085,0.1795,0.2435
-0.108,0.177,0.2395
-0.1095,0.1725,0.24
-0.1125,0.173,0.2385
-0.116,0.17,0.2335
-0.11,0.1695,0.2355
-0.111,0.17,0.235
-0.115,0.17,0.2325
-0.116,0.169,0.2285
-0.116,0.166,0.2275
-0.1185,0.1645,0.226
-0.1205,0.1625,0.224
-0.119,0.163,0.2295
-0.1245,0.1625,0.232
-0.123,0.162,0.2315
-0.118,0.161,0.234
-0.119,0.159,0.2355
-0.1195,0.1575,0.2325
-0.1235,0.1565,0.2275
-0.1245,0.155,0.223
-0.124,0.154,0.2215
-0.1205,0.157,0.22
-0.121,0.156,0.221
-0.122,0.1555,0.2225
-0.1195,0.1545,0.22
-0.1235,0.153,0.22
-0.1255,0.152,0.217
-0.1205,0.1535,0.2205
-0.1205,0.155,0.224
-0.1225,0.153,0.22
-0.1235,0.153,0.219
-0.125,0.1525,0.215
-0.122,0.1535,0.217
-0.1265,0.153,0.216
-0.125,0.1545,0.2155
-0.118,0.157,0.2185
-0.1205,0.154,0.2165
-0.123,0.1525,0.214
-0.123,0.1545,0.214
-0.123,0.153,0.219
-0.1245,0.15,0.2215
-0.1285,0.15,0.221
-0.1285,0.152,0.218
-0.129,0.1505,0.2185
-0.1275,0.149,0.2135
-0.123,0.149,0.2115
-0.123,0.148,0.2205
-0.123,0.1485,0.2205
-0.1215,0.1495,0.2185
-0.123,0.1525,0.2135
-0.1255,0.15,0.215
-0.115,0.152,0.225
-0.117,0.1525,0.227
-0.1265,0.15,0.2285
-0.119,0.151,0.2295
-0.1205,0.1515,0.2315
-0.123,0.1525,0.228
-0.121,0.1515,0.2225
-0.119,0.1525,0.226
-0.118,0.1525,0.224
-0.1245,0.1495,0.2265
-0.125,0.1515,0.228
-0.1205,0.1535,0.2255
-0.1195,0.1545,0.2245
-0.12,0.155,0.221
-0.118,0.1535,0.222
-0.115,0.1545,0.215
-0.113,0.153,0.21
-0.1195,0.1525,0.2125
-0.1225,0.155,0.2175
-0.118,0.155,0.2215
-0.121,0.1535,0.2215
-0.1195,0.1535,0.221
-0.1195,0.1565,0.2215
-0.123,0.154,0.2255
-0.1185,0.1545,0.2245
-0.12,0.155,0.225
-0.123,0.153,0.2245
-0.123,0.153,0.2245
-0.1235,0.1515,0.225
-0.1235,0.1505,0.221
-0.1195,0.1495,0.227
-0.1205,0.1515,0.229
-0.124,0.1525,0.227
-0.1245,0.1505,0.228
-0.1275,0.15,0.2285
-0.126,0.151,0.2305
-0.122,0.152,0.228
-0.118,0.1545,0.226
-0.1175,0.1545,0.229
-0.116,0.154,0.231
-0.116,0.152,0.226
-0.1165,0.153,0.227
-0.1195,0.1535,0.229
-0.1195,0.151,0.2295
-0.115,0.1525,0.2315
-0.1215,0.1525,0.2335
-0.119,0.1535,0.2325
-0.117,0.1525,0.228
-0.124,0.151,0.229
-0.124,0.1515,0.232
-0.1205,0.153,0.23
-0.1235,0.1535,0.228
-0.132,0.1515,0.2245
-0.1285,0.1515,0.223
-0.1235,0.1515,0.223
-0.1195,0.153,0.2225
-0.119,0.1525,0.222
-0.1235,0.15,0.223
-0.1215,0.1495,0.2245
-0.1215,0.149,0.222
-0.1255,0.149,0.227
-0.126,0.1495,0.229
-0.1245,0.149,0.227
-0.1205,0.1505,0.2305
-0.121,0.1505,0.2305
-0.12,0.153,0.2305
-0.1205,0.154,0.229
-0.1285,0.1505,0.2295
-0.119,0.1535,0.2315
-0.1165,0.1545,0.229
-0.1225,0.156,0.231
-0.1185,0.158,0.228
-0.1205,0.155,0.2235
-0.125,0.1525,0.2275
-0.128,0.151,0.227
-0.1265,0.1525,0.2235
-0.1275,0.1545,0.2225
-0.122,0.157,0.2215
-0.1195,0.16,0.223
-0.1235,0.158,0.2245
-0.1225,0.1565,0.2265
-0.123,0.156,0.2245
-0.127,0.1545,0.221
-0.1315,0.1545,0.2245
-0.127,0.1565,0.2275
-0.1235,0.155,0.2275
-0.1225,0.1525,0.2245
-0.1255,0.151,0.2225
-0.131,0.149,0.2245
-0.1285,0.1515,0.2265
-0.1255,0.152,0.227
-0.1265,0.148,0.2235
-0.1255,0.1485,0.2205
-0.122,0.148,0.2225
-0.1255,0.145,0.222
-0.128,0.145,0.218
-0.1235,0.1455,0.2225
-0.1275,0.1445,0.2245
-0.134,0.1435,0.2195
-0.129,0.143,0.22
-0.126,0.1445,0.216
-0.1265,0.1435,0.2175
-0.124,0.142,0.2225
-0.1255,0.145,0.223
-0.1295,0.146,0.2225
-0.1305,0.144,0.222
-0.1265,0.145,0.224
-0.1245,0.144,0.223
-0.1275,0.1415,0.2195
-0.129,0.1435,0.22
-0.1295,0.1415,0.2235
-0.1305,0.1405,0.2215
-0.1255,0.142,0.2205
-0.12,0.1415,0.2195
-0.126,0.14,0.2105
-0.1285,0.138,0.2055
-0.126,0.1415,0.2065
-0.1275,0.14,0.2055
-0.13,0.1375,0.208
-0.1285,0.14,0.2075
-0.13,0.139,0.199
-0.133,0.136,0.201
-0.128,0.136,0.205
-0.1285,0.1365,0.205
-0.1345,0.1355,0.204
-0.1365,0.1325,0.2025
-0.137,0.1315,0.2045
-0.1365,0.134,0.2055
-0.1345,0.135,0.2075
-0.1325,0.133,0.2105
-0.13,0.1345,0.21
-0.1305,0.1375,0.2095
-0.13,0.137,0.2105
-0.131,0.1365,0.2105
-0.136,0.134,0.2065
-0.1315,0.135,0.2035
-0.128,0.136,0.203
-0.1285,0.134,0.2005
-0.127,0.1345,0.2005
-0.1265,0.1345,0.202
-0.1315,0.1345,0.201
-0.1325,0.1335,0.201
-0.1295,0.1335,0.2075
-0.1275,0.136,0.213
-0.1265,0.1365,0.211
-0.1335,0.135,0.2065
-0.136,0.134,0.202
-0.135,0.133,0.203
-0.128,0.135,0.2085
-0.1265,0.1375,0.209
-0.13,0.1345,0.2075
-0.1335,0.1335,0.2065
-0.143,0.1325,0.203
-0.1365,0.133,0.2005
-0.1275,0.1335,0.2015
-0.129,0.131,0.2015
-0.132,0.132,0.2035
-0.129,0.1325,0.2015
-0.128,0.132,0.2035
-0.132,0.13,0.204
-0.13,0.129,0.1965
-0.127,0.1285,0.197
-0.1335,0.1275,0.199
-0.1395,0.1285,0.2045
-0.138,0.126,0.205
-0.136,0.1255,0.2015
-0.1335,0.1295,0.204
-0.132,0.1315,0.2055
-0.1365,0.1305,0.206
-0.134,0.1295,0.203
-0.1235,0.1325,0.2005
-0.1255,0.1325,0.1955
-0.1295,0.132,0.19
-0.13,0.133,0.193
-0.1335,0.1295,0.1925
-0.1335,0.127,0.191
-0.131,0.1275,0.192
-0.1325,0.128,0.1945
-0.1385,0.1255,0.1935
-0.1365,0.125,0.189
-0.133,0.1275,0.1865
-0.134,0.126,0.185
-0.1335,0.125,0.187
-0.135,0.126,0.1895
-0.1385,0.1255,0.189
-0.139,0.1245,0.1905
-0.1355,0.1225,0.1925
-0.1355,0.1245,0.1895
-0.1375,0.125,0.1885
-0.1335,0.1245,0.191
-0.13,0.125,0.191
-0.1325,0.1235,0.19
-0.138,0.125,0.1885
-0.137,0.1245,0.19
-0.1355,0.1235,0.19
-0.1395,0.1245,0.187
-0.1375,0.127,0.1855
-0.135,0.127,0.1885
-0.1345,0.129,0.19
-0.1315,0.1305,0.1875
-0.1305,0.1275,0.192
-0.1345,0.125,0.187
-0.1335,0.125,0.18
-0.1355,0.1275,0.1835
-0.14,0.127,0.1835
-0.141,0.1285,0.187
-0.1375,0.128,0.193
-0.134,0.128,0.192
-0.1375,0.126,0.1895
-0.1375,0.1225,0.187
-0.1335,0.1285,0.189
-0.129,0.1305,0.1935
-0.131,0.128,0.1895
-0.136,0.1295,0.19
-0.142,0.13,0.1865
-0.144,0.127,0.18
-0.1355,0.1285,0.1835
-0.1355,0.1305,0.18
-0.1395,0.1295,0.178
-0.1355,0.1315,0.18
-0.133,0.132,0.179
-0.1345,0.1315,0.1805
-0.137,0.1275,0.1835
-0.1345,0.1275,0.184
-0.1325,0.133,0.181
-0.135,0.129,0.1835
-0.137,0.1285,0.1845
-0.141,0.129,0.179
-0.1395,0.127,0.1785
-0.137,0.129,0.181
-0.1345,0.1285,0.182
-0.133,0.129,0.1805
-0.135,0.1285,0.1795
-0.131,0.1275,0.179
-0.129,0.1275,0.1805
-0.1305,0.1275,0.1785
-0.135,0.127,0.1815
-0.137,0.127,0.186
-0.1365,0.1285,0.182
-0.139,0.1265,0.178
-0.1405,0.1265,0.1745
-0.1365,0.129,0.177
-0.131,0.131,0.182
-0.133,0.129,0.183
-0.136,0.1275,0.179
-0.1375,0.129,0.183
-0.1355,0.129,0.1855
-0.137,0.128,0.184
-0.1385,0.126,0.187
-0.134,0.1275,0.188
-0.1315,0.1295,0.194
-0.1305,0.1295,0.1935
-0.1325,0.1285,0.188
-0.134,0.126,0.187
-0.1375,0.1245,0.1845
-0.136,0.1285,0.1825
-0.138,0.129,0.182
-0.138,0.127,0.185
-0.136,0.1275,0.186
-0.139,0.1275,0.185
-0.1405,0.1285,0.183
-0.1435,0.126,0.1835
-0.14,0.126,0.187
-0.136,0.127,0.1895
-0.134,0.128,0.193
-0.1385,0.1275,0.1935
-0.143,0.127,0.196
-0.1375,0.1285,0.1965
-0.1365,0.1295,0.1925
-0.139,0.1295,0.1905
-0.1405,0.1285,0.191
-0.141,0.127,0.191
-0.1405,0.1275,0.1865
-0.14,0.126,0.1835
-0.1415,0.124,0.184
-0.14,0.125,0.1815
-0.14,0.124,0.184
-0.14,0.125,0.19
-0.1365,0.126,0.189
-0.1435,0.1225,0.182
-0.148,0.124,0.176
-0.139,0.127,0.178
-0.138,0.1275,0.185
-0.14,0.1245,0.1895
-0.1405,0.1245,0.1925
-0.1445,0.1255,0.195
-0.1475,0.1245,0.1935
-0.1455,0.127,0.1935
-0.1405,0.126,0.1945
-0.146,0.1255,0.195
-0.144,0.127,0.2035
-0.136,0.1285,0.21
-0.1375,0.129,0.203
-0.1405,0.1265,0.191
-0.14,0.1265,0.19
-0.1365,0.1265,0.19
-0.1355,0.126,0.186
-0.1355,0.126,0.187
-0.132,0.128,0.1895
-0.1315,0.1295,0.184
-0.136,0.1275,0.1775
-0.1335,0.126,0.1755
-0.1345,0.126,0.1765
-0.138,0.128,0.177
-0.135,0.1305,0.176
-0.131,0.1325,0.1785
-0.137,0.1305,0.1785
-0.1405,0.1285,0.176
-0.1345,0.1315,0.175
-0.1305,0.133,0.178
-0.129,0.1355,0.185
-0.125,0.139,0.1855
-0.121,0.1425,0.1805
-0.116,0.146,0.185
-0.11,0.1455,0.195
-0.1155,0.1475,0.2025
-0.1125,0.1525,0.205
-0.102,0.158,0.2075
-0.0985,0.1625,0.217
-0.096,0.1645,0.2225
-0.102,0.1645,0.219
-0.1055,0.168,0.228
-0.1045,0.1715,0.237
-0.101,0.174,0.237
-0.097,0.177,0.231
-0.0955,0.1825,0.221
-0.0875,0.1865,0.225
-0.087,0.1895,0.2285
-0.082,0.193,0.227
-0.072,0.195,0.225
-0.0715,0.1995,0.2265
-0.0765,0.1975,0.229
-0.0845,0.1965,0.2215
-0.083,0.198,0.219
-0.0815,0.196,0.2205
-0.0855,0.197,0.216
-0.0895,0.1945,0.2175
-0.096,0.1905,0.22
-0.095,0.192,0.219
-0.091,0.195,0.213
-0.087,0.1975,0.21
-0.0855,0.1965,0.211
-0.0845,0.196,0.205
-0.0795,0.199,0.202
-0.0785,0.201,0.2
-0.0785,0.203,0.1955
-0.076,0.2025,0.192
-0.067,0.205,0.193
-0.0685,0.2055,0.1945
-0.076,0.2015,0.1905
-0.082,0.197,0.1885
-0.086,0.1925,0.1895
-0.0855,0.1925,0.193
-0.0845,0.19,0.198
-0.0885,0.183,0.2015
-0.1025,0.176,0.1985
-0.1085,0.1705,0.197
-0.1065,0.1695,0.204
-0.107,0.166,0.2065
-0.108,0.163,0.2035
-0.106,0.1635,0.204
-0.1035,0.16,0.2075
-0.1055,0.156,0.207
-0.1135,0.151,0.203
-0.1195,0.149,0.196
-0.1165,0.1505,0.1985
-0.112,0.1505,0.2005
-0.115,0.149,0.1975
-0.1175,0.148,0.198
-0.111,0.152,0.1995
-0.099,0.1585,0.202
-0.0955,0.161,0.199
-0.095,0.1635,0.194
-0.0865,0.1665,0.196
-0.0815,0.1685,0.202
-0.084,0.1655,0.1965
-0.0855,0.164,0.19
-0.086,0.1675,0.194
-0.087,0.167,0.195
-0.084,0.1665,0.192
-0.082,0.1655,0.1885
-0.084,0.1635,0.188
-0.0825,0.1645,0.193
-0.0855,0.163,0.195
-0.088,0.162,0.193
-0.086,0.1625,0.1925
-0.083,0.161,0.1925
-0.082,0.1605,0.191
-0.088,0.157,0.187
-0.0925,0.1545,0.1845
-0.0945,0.1545,0.18
-0.0985,0.152,0.1715
-0.104,0.146,0.172
-0.109,0.142,0.172
-0.117,0.1365,0.1695
-0.1215,0.1315,0.1715
-0.1265,0.1255,0.171
-0.1385,0.118,0.167
-0.146,0.1125,0.165
-0.1535,0.107,0.1625
-0.1565,0.107,0.159
-0.16,0.1075,0.165
-0.1605,0.107,0.169
-0.1615,0.108,0.1705
-0.1625,0.108,0.1715
-0.1595,0.1095,0.1745
-0.164,0.108,0.179
-0.1585,0.11,0.175
-0.157,0.11,0.1735
-0.162,0.108,0.173
-0.16,0.11,0.1735
-0.16,0.1105,0.174
-0.1645,0.11,0.1695
-0.17,0.107,0.1665
-0.169,0.1055,0.166
-0.1635,0.1055,0.1635
-0.1625,0.1055,0.1585
-0.168,0.1045,0.162
-0.168,0.1055,0.1705
-0.163,0.109,0.168
-0.155,0.1105,0.166
-0.1515,0.109,0.167
-0.1545,0.1085,0.1615
-0.151,0.1115,0.167
-0.1525,0.1125,0.1715
-0.162,0.1095,0.17
-0.1625,0.1085,0.171
-0.1575,0.1095,0.172
-0.1575,0.1085,0.172
-0.1645,0.108,0.1705
-0.1585,0.11,0.1715
-0.159,0.1095,0.175
-0.1625,0.107,0.1735
-0.1555,0.1095,0.171
-0.16,0.1105,0.173
-0.1615,0.1085,0.172
-0.1605,0.109,0.1715
-0.159,0.109,0.1745
-0.157,0.1115,0.1785
-0.1585,0.111,0.178
-0.1595,0.1115,0.1745
-0.1635,0.111,0.1765
-0.1645,0.108,0.1825
-0.164,0.111,0.184
-0.1595,0.115,0.181
-0.158,0.1135,0.184
-0.1605,0.111,0.184
-0.154,0.114,0.184
-0.158,0.1125,0.1815
-0.165,0.1125,0.187
-0.1615,0.114,0.193
-0.1645,0.1135,0.1895
-0.162,0.1165,0.1875
-0.157,0.1175,0.187
-0.162,0.1155,0.189
-0.16,0.1155,0.189
-0.157,0.118,0.189
-0.163,0.115,0.1855
-0.161,0.1145,0.1865
-0.1605,0.115,0.189
-0.1645,0.1135,0.19
-0.166,0.1105,0.1915
-0.1705,0.1075,0.1905
-0.1685,0.108,0.1945
-0.1695,0.104,0.1965
-0.178,0.098,0.1925
-0.182,0.093,0.194
-0.188,0.0825,0.195
-0.201,0.07,0.197
-0.2105,0.0575,0.2035
-0.2215,0.0465,0.212
-0.231,0.037,0.2185
-0.2385,0.0275,0.2145
-0.247,0.0165,0.21
-0.253,0.0035,0.202
-0.2575,-0.0085,0.1935
-0.263,-0.023,0.1845
-0.279,-0.0425,0.1685
-0.2815,-0.055,0.157
-0.278,-0.059,0.152
-0.2845,-0.063,0.1465
-0.2815,-0.0665,0.1505
-0.2755,-0.0575,0.17
-0.263,-0.039,0.1745
-0.241,-0.0125,0.1755
-0.2215,0.021,0.1895
-0.1945,0.0655,0.2085
-0.1505,0.1235,0.224
-0.0975,0.187,0.235
-0.0515,0.2475,0.2465
-0.002,0.315,0.2545
0.056,0.391,0.2755
0.106,0.4625,0.2955
0.152,0.537,0.315
0.2095,0.6325,0.355
0.2665,0.7335,0.41
0.313,0.828,0.4725
0.354,0.9205,0.5405
0.3915,1.0085,0.618
0.419,1.093,0.696
0.4445,1.1695,0.766
0.4735,1.244,0.837
0.4925,1.318,0.916
0.499,1.3825,0.9825
0.503,1.4385,1.0435
0.5225,1.512,1.133
0.5375,1.5815,1.1815
0.5295,1.6165,1.206
0.515,1.631,1.2365
0.493,1.617,1.228
0.45,1.5705,1.202
0.3995,1.4975,1.148
0.3615,1.4125,1.068
0.3415,1.3255,0.954
0.3205,1.244,0.8575
0.286,1.168,0.801
0.2535,1.096,0.7615
0.22,1.033,0.7385
0.1855,0.97,0.7135
0.1555,0.898,0.6795
0.11,0.8195,0.6475
0.0555,0.728,0.622
0.0075,0.6245,0.5935
-0.0405,0.527,0.5735
-0.077,0.442,0.5415
-0.1105,0.3555,0.506
-0.1395,0.2775,0.459
-0.175,0.1935,0.404
-0.205,0.125,0.3745
-0.212,0.0955,0.3505
-0.2165,0.074,0.318
-0.2205,0.0575,0.274
-0.224,0.032,0.2335
-0.2275,0.0025,0.205
-0.2265,-0.0145,0.1845
-0.221,-0.0265,0.159
-0.216,-0.029,0.14
-0.2085,-0.0195,0.136
-0.2035,-0.008,0.1255
-0.1955,0.0035,0.1215
-0.1895,0.0145,0.128
-0.1835,0.027,0.1405
-0.18,0.0405,0.154
-0.189,0.0485,0.1665
-0.1855,0.059,0.175
-0.178,0.0715,0.1765
-0.1775,0.076,0.1825
-0.175,0.082,0.189
-0.17,0.093,0.2045
-0.1675,0.102,0.219
-0.167,0.113,0.2305
-0.158,0.1255,0.248
-0.145,0.135,0.2565
-0.1485,0.1375,0.2605
-0.152,0.139,0.26
-0.1415,0.1425,0.2595
-0.14,0.1445,0.26
-0.139,0.1485,0.2555
-0.137,0.151,0.255
-0.142,0.148,0.2515
-0.1485,0.1465,0.245
-0.1485,0.147,0.244
-0.1465,0.1465,0.2445
-0.1485,0.145,0.247
-0.1455,0.147,0.2555
-0.143,0.148,0.256
-0.1445,0.1465,0.251
-0.142,0.147,0.252
-0.1415,0.1485,0.2535
-0.143,0.15,0.2575
-0.1425,0.151,0.259
-0.147,0.151,0.2565
-0.1465,0.15,0.258
-0.143,0.1505,0.2595
-0.1405,0.1515,0.2595
-0.145,0.15,0.2545
-0.1435,0.1505,0.2535
-0.1375,0.153,0.258
-0.14,0.154,0.2585
-0.1415,0.154,0.2585
-0.143,0.1545,0.253
-0.1425,0.1525,0.2505
-0.1425,0.1545,0.252
-0.1425,0.1575,0.253
-0.14,0.1555,0.2535
-0.137,0.156,0.2575
-0.137,0.157,0.2565
-0.1385,0.156,0.2495
-0.1365,0.16,0.252
-0.1375,0.1615,0.255
-0.134,0.1615,0.252
-0.1295,0.165,0.249
-0.13,0.164,0.247
-0.1265,0.1655,0.248
-0.1275,0.167,0.253
-0.131,0.166,0.2545
-0.13,0.1665,0.2545
-0.1325,0.1655,0.256
-0.136,0.165,0.256
-0.135,0.1675,0.2595
-0.1345,0.166,0.2565
-0.1335,0.1655,0.2545
-0.134,0.1665,0.2555
-0.131,0.166,0.2565
-0.122,0.17,0.2625
-0.1205,0.173,0.2625
-0.123,0.1725,0.259
-0.1245,0.1725,0.258
-0.1275,0.1735,0.258
-0.1295,0.1745,0.256
-0.1275,0.176,0.258
-0.125,0.179,0.258
-0.1235,0.1805,0.2535
-0.1205,0.18,0.254
-0.121,0.18,0.2545
-0.1175,0.1815,0.257
-0.112,0.185,0.2615
-0.115,0.1855,0.2625
-0.118,0.1855,0.261
-0.1195,0.187,0.2595
-0.118,0.1865,0.2635
-0.1205,0.1855,0.262
-0.1235,0.1855,0.257
-0.12,0.1885,0.2605
-0.113,0.1915,0.2685
-0.1105,0.1925,0.2725
-0.113,0.1945,0.27
-0.1095,0.194,0.271
-0.1065,0.194,0.2705
-0.1055,0.196,0.27
-0.1035,0.198,0.2705
-0.104,0.199,0.268
-0.1035,0.199,0.2685
-0.1055,0.1985,0.268
-0.1065,0.199,0.269
-0.1035,0.2005,0.2735
-0.1045,0.2015,0.273
-0.1055,0.2025,0.2705
-0.1025,0.204,0.2695
-0.0975,0.2055,0.2735
-0.0995,0.206,0.272
-0.103,0.206,0.2675
-0.1,0.207,0.273
-0.1,0.2085,0.2735
-0.0955,0.2105,0.2715
-0.0935,0.213,0.273
-0.096,0.2135,0.2715
-0.092,0.215,0.2735
-0.0915,0.2165,0.276
-0.0905,0.2175,0.28
-0.088,0.2205,0.2805
-0.0855,0.2215,0.274
-0.087,0.2225,0.2725
-0.0955,0.2215,0.269
-0.0945,0.2215,0.269
-0.0885,0.2245,0.273
-0.0865,0.226,0.273
-0.084,0.2295,0.2765
-0.082,0.2325,0.276
-0.082,0.232,0.275
-0.0825,0.2335,0.2765
-0.0795,0.236,0.2795
-0.0765,0.2395,0.2875
-0.075,0.242,0.2895
-0.0745,0.244,0.287
-0.0755,0.2445,0.2875
-0.0745,0.2465,0.287
-0.0725,0.2475,0.2865
-0.071,0.2475,0.287
-0.0705,0.25,0.2855
-0.07,0.2515,0.2835
-0.0655,0.255,0.289
-0.0625,0.2575,0.291
-0.0605,0.262,0.292
-0.0555,0.2655,0.299
-0.0555,0.2655,0.3
-0.054,0.2675,0.299
-0.0505,0.2685,0.2995
-0.0535,0.27,0.3045
-0.0525,0.274,0.305
-0.053,0.2765,0.306
-0.0545,0.277,0.3105
-0.0475,0.2815,0.308
-0.042,0.2855,0.306
-0.04,0.2895,0.3065
-0.0395,0.2915,0.3095
-0.0385,0.2925,0.312
-0.033,0.299,0.3125
-0.0245,0.302,0.316
-0.026,0.3015,0.321
-0.0285,0.306,0.322
-0.0245,0.3105,0.3235
-0.0245,0.3135,0.3225
-0.0215,0.318,0.3185
-0.0195,0.32,0.3205
-0.019,0.322,0.3205
-0.0075,0.328,0.3205
-0.01,0.332,0.321
-0.0145,0.3295,0.3245
-0.007,0.333,0.3315
-0.0075,0.3375,0.3275
-0.004,0.3395,0.3285
0.0025,0.347,0.338
0.0045,0.3505,0.3355
0.0045,0.3555,0.3365
0.005,0.3595,0.34
0.009,0.365,0.343
0.0115,0.372,0.346
0.0155,0.373,0.3465
0.0195,0.3745,0.3525
0.022,0.3775,0.351
0.0265,0.383,0.3485
0.0305,0.3885,0.354
0.032,0.3915,0.3575
0.037,0.395,0.36
0.039,0.3985,0.3635
0.0425,0.402,0.369
0.0495,0.407,0.3725
0.052,0.4115,0.376
0.0525,0.415,0.3765
0.056,0.417,0.3755
0.057,0.4185,0.379
0.0555,0.4225,0.3795
0.0605,0.426,0.3795
0.064,0.43,0.3825
0.0645,0.434,0.384
0.064,0.435,0.3825
0.065,0.4375,0.3855
0.066,0.4385,0.388
0.0695,0.4405,0.3945
0.0735,0.445,0.403
0.0765,0.4505,0.402
0.079,0.451,0.3995
0.0785,0.4535,0.394
0.081,0.458,0.393
0.082,0.4585,0.397
0.0815,0.4605,0.4015
0.0795,0.462,0.4045
0.0745,0.462,0.398
0.0745,0.4645,0.3955
0.0795,0.468,0.3965
0.0845,0.4715,0.3955
0.086,0.473,0.3975
0.086,0.474,0.396
0.09,0.4785,0.3995
0.09,0.482,0.4065
0.089,0.4825,0.4065
0.0885,0.4825,0.4055
0.09,0.482,0.406
0.0905,0.486,0.41
0.09,0.4895,0.4115
0.0955,0.489,0.413
0.0965,0.488,0.413
0.0935,0.4855,0.411
0.087,0.4825,0.4135
0.085,0.4795,0.413
0.086,0.4785,0.4115
0.083,0.4785,0.4135
0.0815,0.478,0.4125
0.0795,0.477,0.406
0.0785,0.473,0.403
0.0795,0.472,0.409
0.081,0.473,0.4165
0.0795,0.4695,0.415
0.072,0.4625,0.413
0.0675,0.458,0.408
0.0685,0.4585,0.401
0.068,0.454,0.4035
0.064,0.4485,0.404
0.0595,0.445,0.402
0.051,0.4375,0.3995
0.048,0.4335,0.394
0.0475,0.431,0.3935
0.0425,0.4245,0.3905
0.041,0.4165,0.3855
0.0315,0.4095,0.3815
0.0245,0.407,0.377
0.0245,0.4005,0.3735
0.0195,0.3925,0.371
0.0155,0.3855,0.3695
0.013,0.378,0.3655
0.0035,0.371,0.361
-0.0015,0.3655,0.3585
-0.0005,0.361,0.3585
-0.007,0.3545,0.355
-0.0145,0.3475,0.351
-0.0205,0.3405,0.3465
-0.024,0.334,0.3415
-0.026,0.3275,0.34
-0.0285,0.3215,0.341
-0.027,0.3165,0.339
-0.029,0.3115,0.327
-0.0305,0.307,0.321
-0.033,0.2995,0.3175
-0.041,0.293,0.3115
-0.0455,0.288,0.309
-0.053,0.282,0.3025
-0.057,0.277,0.298
-0.0595,0.2725,0.294
-0.0645,0.2665,0.2905
-0.0705,0.261,0.2895
-0.075,0.254,0.2895
-0.0705,0.2485,0.2905
-0.0735,0.247,0.2895
-0.0795,0.242,0.286
-0.0785,0.237,0.2885
-0.084,0.2325,0.283
-0.0915,0.227,0.2755
-0.092,0.225,0.275
-0.0955,0.2205,0.2695
-0.0915,0.219,0.2665
-0.09,0.217,0.2645
-0.096,0.212,0.2625
-0.0985,0.208,0.261
-0.098,0.2035,0.2595
-0.0955,0.2035,0.257
-0.099,0.201,0.2565
-0.106,0.197,0.256
-0.1135,0.192,0.2515
-0.1115,0.1895,0.2465
-0.1115,0.1895,0.2415
-0.1125,0.1855,0.2425
-0.1105,0.184,0.245
-0.113,0.183,0.249
-0.114,0.18,0.2505
-0.1155,0.178,0.248
-0.1165,0.1765,0.244
-0.119,0.176,0.235
-0.1245,0.174,0.2325
-0.1265,0.1715,0.233
-0.129,0.1685,0.234
-0.134,0.166,0.234
-0.13,0.1655,0.233
-0.1295,0.1645,0.237
-0.135,0.1615,0.237
-0.134,0.161,0.236
-0.133,0.161,0.2345
-0.128,0.162,0.231
-0.1225,0.1655,0.23
-0.129,0.1625,0.2265
-0.133,0.16,0.2265
-0.1285,0.16,0.2295
-0.1265,0.1605,0.23
-0.131,0.1575,0.2265
-0.13,0.1565,0.228
-0.124,0.16,0.23
-0.1275,0.1585,0.2275
-0.1305,0.1565,0.23
-0.133,0.1555,0.2285
-0.1405,0.156,0.23
-0.139,0.156,0.2365
-0.135,0.1575,0.235
-0.1335,0.1575,0.228
-0.13,0.156,0.223
-0.1325,0.1575,0.22
-0.1295,0.158,0.2175
-0.1225,0.159,0.2165
-0.1265,0.1585,0.216
-0.1275,0.1595,0.214
-0.126,0.1605,0.2085
-0.1295,0.1585,0.203
-0.131,0.157,0.2015
-0.1305,0.1565,0.2105
-0.129,0.1575,0.2165
-0.127,0.159,0.2195
-0.1285,0.159,0.2225
-0.1275,0.159,0.223
-0.1245,0.16,0.2255
-0.127,0.159,0.228
-0.132,0.158,0.2285
-0.1315,0.159,0.224
-0.1335,0.158,0.224
-0.1325,0.159,0.222
-0.1275,0.161,0.2175
-0.1295,0.16,0.216
-0.132,0.159,0.2135
-0.1325,0.16,0.2165
-0.1345,0.157,0.2155
-0.136,0.157,0.213
-0.1265,0.161,0.212
-0.1225,0.16,0.215
-0.1265,0.1565,0.2175
-0.1295,0.156,0.215
-0.1305,0.1585,0.2205
-0.1285,0.1585,0.222
-0.132,0.16,0.221
-0.1325,0.1605,0.225
-0.1325,0.1595,0.2225
-0.136,0.159,0.22
-0.137,0.1595,0.222
-0.138,0.1585,0.2205
-0.1395,0.159,0.2175
-0.1385,0.159,0.218
-0.133,0.1585,0.2205
-0.132,0.1605,0.2205
-0.1335,0.16,0.22
-0.1335,0.162,0.222
-0.1335,0.162,0.2245
-0.131,0.1585,0.2245
-0.13,0.158,0.226
-0.131,0.158,0.2245
-0.1325,0.158,0.22
-0.1345,0.158,0.2225
-0.1325,0.1575,0.2275
-0.1285,0.159,0.232
-0.133,0.1585,0.232
-0.1315,0.1585,0.233
-0.132,0.1575,0.235
-0.137,0.1565,0.2355
-0.139,0.1585,0.235
-0.141,0.1585,0.229
-0.135,0.1605,0.2275
-0.13,0.1605,0.226
-0.1275,0.161,0.2245
-0.1265,0.161,0.2215
-0.1295,0.1595,0.2195
-0.13,0.159,0.224
-0.1255,0.161,0.2235
-0.122,0.164,0.223
-0.1235,0.1635,0.223
-0.126,0.1605,0.2215
-0.126,0.158,0.222
-0.133,0.1575,0.223
-0.1395,0.1575,0.23
-0.1365,0.159,0.231
-0.1375,0.159,0.231
-0.1435,0.1565,0.2345
-0.139,0.158,0.2335
-0.1335,0.159,0.233
-0.1345,0.16,0.236
-0.1315,0.164,0.234
-0.13,0.165,0.2255
-0.1335,0.161,0.2245
-0.132,0.16,0.2265
-0.127,0.161,0.2285
-0.1295,0.16,0.2295
-0.1305,0.1605,0.2305
-0.136,0.1575,0.23
-0.143,0.1555,0.2275
-0.141,0.156,0.227
-0.14,0.1535,0.232
-0.1375,0.1535,0.2375
-0.137,0.1525,0.2385
-0.1375,0.152,0.239
-0.1365,0.1535,0.2355
-0.1345,0.153,0.2345
-0.136,0.1525,0.2355
-0.139,0.151,0.233
-0.1345,0.1535,0.2335
-0.134,0.1545,0.2365
-0.1335,0.1515,0.241
-0.134,0.1535,0.241
-0.137,0.1545,0.2385
-0.1365,0.1535,0.2375
-0.137,0.153,0.233
-0.1355,0.1515,0.2315
-0.134,0.1535,0.232
-0.1345,0.152,0.2325
-0.136,0.15,0.232
-0.137,0.1495,0.232
-0.1355,0.15,0.2335
-0.135,0.149,0.233
-0.138,0.146,0.236
-0.14,0.1455,0.2335
-0.142,0.146,0.235
-0.1405,0.147,0.2385
-0.1415,0.148,0.2365
-0.1435,0.1475,0.234
-0.146,0.147,0.227
-0.1455,0.145,0.2275
-0.1395,0.146,0.2305
-0.1385,0.1465,0.2285
-0.1405,0.1435,0.227
-0.141,0.1455,0.228
-0.138,0.144,0.23
-0.1395,0.142,0.229
-0.145,0.142,0.2275
-0.148,0.1405,0.2285
-0.148,0.1395,0.228
-0.148,0.1395,0.227
-0.147,0.14,0.229
-0.1425,0.139,0.228
-0.1395,0.1405,0.2285
-0.142,0.141,0.229
-0.143,0.1385,0.23
-0.14,0.138,0.2295
-0.142,0.138,0.23
-0.1455,0.138,0.23
-0.1475,0.137,0.23
-0.1425,0.1375,0.234
-0.142,0.139,0.228
-0.147,0.139,0.221
-0.146,0.1375,0.221
-0.143,0.138,0.2215
-0.142,0.1385,0.2195
-0.1445,0.137,0.2145
-0.145,0.136,0.214
-0.1435,0.138,0.216
-0.1405,0.1385,0.2185
-0.14,0.1385,0.216
-0.1435,0.1385,0.215
-0.143,0.1365,0.222
-0.144,0.137,0.2255
-0.148,0.136,0.2265
-0.147,0.1355,0.2265
-0.1425,0.1375,0.2235
-0.1435,0.135,0.218
-0.148,0.132,0.214
-0.1475,0.134,0.213
-0.147,0.131,0.215
-0.147,0.132,0.216
-0.1485,0.133,0.214
-0.151,0.131,0.209
-0.15,0.1305,0.209
-0.1485,0.129,0.214
-0.147,0.131,0.214
-0.144,0.1315,0.2145
-0.144,0.1325,0.2165
-0.149,0.1325,0.217
-0.149,0.129,0.218
-0.147,0.1295,0.2175
-0.147,0.129,0.2145
-0.1475,0.1285,0.213
-0.1455,0.131,0.215
-0.1455,0.1325,0.214
-0.1495,0.1305,0.2115
-0.15,0.129,0.213
-0.151,0.1295,0.2135
-0.147,0.1295,0.2105
-0.1445,0.13,0.208
-0.1465,0.129,0.206
-0.1465,0.1305,0.2035
-0.146,0.133,0.2
-0.1455,0.1295,0.1995
-0.148,0.127,0.201
-0.1515,0.1265,0.197
-0.149,0.128,0.1985
-0.1465,0.1275,0.2
-0.1515,0.1265,0.199
-0.151,0.128,0.2015
-0.141,0.1295,0.205
-0.137,0.1305,0.209
-0.144,0.1305,0.2085
-0.1495,0.13,0.2065
-0.1555,0.1305,0.2045
-0.155,0.13,0.2035
-0.1475,0.13,0.205
-0.1535,0.1295,0.1985
-0.148,0.131,0.1925
-0.142,0.133,0.188
-0.1485,0.131,0.1815
-0.1485,0.131,0.1815
-0.1505,0.13,0.174
-0.1475,0.1295,0.1745
-0.143,0.13,0.1845
-0.146,0.128,0.187
-0.146,0.128,0.1945
-0.144,0.129,0.203
-0.142,0.127,0.207
-0.148,0.1255,0.205
-0.153,0.124,0.2005
-0.1525,0.1235,0.199
-0.154,0.1235,0.2025
-0.1515,0.124,0.204
-0.148,0.125,0.201
-0.1475,0.1235,0.1985
-0.147,0.1235,0.1955
-0.149,0.1245,0.192
-0.1485,0.1245,0.1915
-0.147,0.125,0.197
-0.15,0.127,0.1995
-0.1485,0.1285,0.1975
-0.1475,0.127,0.1975
-0.1455,0.1265,0.1955
-0.144,0.1255,0.193
-0.1435,0.126,0.191
-0.145,0.125,0.191
-0.15,0.1245,0.1935
-0.154,0.1255,0.1935
-0.154,0.125,0.193
-0.154,0.1255,0.1925
-0.154,0.123,0.192
-0.153,0.124,0.1955
-0.1505,0.1245,0.1985
-0.1465,0.1255,0.2005
-0.144,0.1265,0.2015
-0.144,0.125,0.1995
-0.1465,0.1265,0.198
-0.148,0.126,0.196
-0.148,0.1265,0.1965
-0.151,0.127,0.196
-0.1545,0.1285,0.1915
-0.154,0.129,0.188
-0.154,0.1285,0.1905
-0.1525,0.128,0.1915
-0.149,0.126,0.1905
-0.15,0.127,0.1935
-0.1525,0.127,0.1945
-0.154,0.1265,0.197
-0.155,0.126,0.199
-0.1545,0.126,0.194
-0.154,0.127,0.1955
-0.154,0.127,0.1995
-0.155,0.127,0.204
-0.1515,0.128,0.206
-0.1515,0.1295,0.203
-0.15,0.1275,0.1975
-0.149,0.1275,0.193
-0.151,0.128,0.1965
-0.144,0.1285,0.1985
-0.146,0.1275,0.195
-0.1535,0.128,0.194
-0.1545,0.13,0.194
-0.154,0.1285,0.1895
-0.154,0.127,0.1885
-0.155,0.126,0.1855
-0.1605,0.1235,0.18
-0.164,0.1215,0.181
-0.1585,0.1235,0.1825
-0.1555,0.124,0.1855
-0.154,0.1255,0.184
-0.1555,0.124,0.1825
-0.157,0.122,0.1855
-0.155,0.124,0.188
-0.1535,0.125,0.188
-0.152,0.122,0.1875
-0.153,0.1215,0.1855
-0.1545,0.126,0.183
-0.158,0.1245,0.1865
-0.1605,0.1215,0.188
-0.157,0.1255,0.192
-0.154,0.13,0.1935
-0.1575,0.1265,0.1895
-0.16,0.1245,0.1905
-0.155,0.1265,0.1935
-0.156,0.1255,0.1925
-0.1585,0.125,0.19
-0.157,0.125,0.1875
-0.1585,0.1255,0.183
-0.16,0.124,0.182
-0.1605,0.1235,0.181
-0.1605,0.124,0.18
-0.161,0.1235,0.1855
-0.1575,0.1255,0.187
-0.1525,0.128,0.1875
-0.1495,0.13,0.1935
-0.1505,0.1285,0.1945
-0.1495,0.1265,0.1925
-0.1435,0.1285,0.195
-0.146,0.13,0.1965
-0.147,0.1305,0.1995
-0.1495,0.128,0.1955
-0.1565,0.1255,0.1865
-0.152,0.128,0.189
-0.1475,0.1295,0.1925
-0.1475,0.1275,0.1895
-0.1475,0.126,0.1935
-0.1515,0.1265,0.197
-0.156,0.125,0.1955
-0.154,0.125,0.1985
-0.1535,0.1245,0.2005
-0.1545,0.1245,0.2015
-0.1525,0.126,0.202
-0.1505,0.127,0.205
-0.15,0.125,0.208
-0.152,0.1235,0.204
-0.153,0.1245,0.1995
-0.155,0.1255,0.1985
-0.157,0.127,0.1965
-0.154,0.125,0.196
-0.1515,0.125,0.194
-0.149,0.127,0.19
-0.1485,0.1265,0.19
-0.153,0.128,0.188
-0.1525,0.126,0.1875
-0.15,0.125,0.1875
-0.152,0.127,0.189
-0.1555,0.1255,0.1905
-0.1585,0.1245,0.1905
-0.158,0.124,0.1905
-0.151,0.1255,0.1895
-0.148,0.1255,0.1925
-0.152,0.1235,0.1925
-0.1505,0.124,0.1945
-0.1525,0.124,0.1975
-0.1585,0.123,0.195
-0.163,0.122,0.1915
-0.1595,0.124,0.1915
-0.1545,0.1255,0.194
-0.16,0.123,0.2025
-0.16,0.123,0.21
-0.156,0.124,0.207
-0.157,0.1225,0.2005
-0.1595,0.1225,0.1925
-0.159,0.1235,0.19
-0.154,0.1245,0.1895
-0.1505,0.124,0.1855
-0.151,0.125,0.1865
-0.149,0.127,0.1875
-0.148,0.1265,0.18
-0.1465,0.127,0.1785
-0.146,0.1275,0.1805
-0.1465,0.1295,0.1845
-0.141,0.134,0.189
-0.1395,0.1365,0.1885
-0.1445,0.137,0.195
-0.146,0.14,0.2005
-0.1385,0.144,0.2055
-0.13,0.1475,0.208
-0.124,0.1535,0.209
-0.12,0.157,0.212
-0.118,0.1625,0.22
-0.114,0.1675,0.2255
-0.115,0.167,0.227
-0.113,0.1675,0.233
-0.11,0.1715,0.2375
-0.111,0.174,0.242
-0.1095,0.1775,0.246
-0.0975,0.1835,0.249
-0.089,0.1865,0.2445
-0.089,0.1905,0.239
-0.0895,0.1935,0.242
-0.088,0.197,0.2455
-0.082,0.2015,0.246
-0.0865,0.2015,0.2455
-0.093,0.1995,0.244
-0.0915,0.1995,0.2315
-0.0925,0.2035,0.22
-0.095,0.202,0.2155
-0.097,0.2,0.2155
-0.0985,0.198,0.221
-0.0975,0.1965,0.222
-0.095,0.2005,0.2215
-0.0955,0.1995,0.219
-0.096,0.1975,0.2215
-0.0945,0.1995,0.2215
-0.092,0.198,0.214
-0.09,0.199,0.209
-0.089,0.1995,0.207
-0.0885,0.1985,0.2005
-0.0885,0.1965,0.2005
-0.086,0.195,0.2035
-0.089,0.1945,0.199
-0.0945,0.192,0.1985
-0.097,0.188,0.198
-0.103,0.182,0.197
-0.105,0.18,0.194
-0.1055,0.1765,0.197
-0.1075,0.1685,0.202
-0.1115,0.1645,0.2025
-0.1155,0.161,0.2085
-0.115,0.1565,0.2085
-0.117,0.155,0.204
-0.121,0.155,0.2005
-0.1195,0.152,0.2025
-0.121,0.149,0.203
-0.1255,0.148,0.201
-0.1275,0.1465,0.2015
-0.1255,0.145,0.2
-0.1205,0.1465,0.1995
-0.122,0.1435,0.196
-0.1175,0.143,0.196
-0.1125,0.1485,0.199
-0.11,0.1515,0.198
-0.103,0.157,0.1955
-0.1025,0.1605,0.193
-0.1005,0.1625,0.1925
-0.099,0.164,0.1895
-0.098,0.163,0.191
-0.094,0.1655,0.194
-0.095,0.166,0.1935
-0.0975,0.1655,0.1925
-0.097,0.1665,0.191
-0.093,0.1665,0.191
-0.0925,0.164,0.193
-0.095,0.1615,0.192
-0.0925,0.162,0.195
-0.092,0.164,0.1985
-0.093,0.1615,0.199
-0.093,0.161,0.1945
-0.101,0.1575,0.188
-0.102,0.1545,0.184
-0.099,0.155,0.182
-0.099,0.1515,0.1855
-0.105,0.149,0.1825
-0.114,0.1455,0.176
-0.114,0.139,0.1735
-0.117,0.1345,0.17
-0.127,0.129,0.1695
-0.1385,0.122,0.1755
-0.143,0.117,0.1775
-0.145,0.1115,0.178
-0.1525,0.1065,0.1735
-0.1615,0.101,0.1665
-0.167,0.097,0.162
-0.1675,0.0975,0.1585
-0.1675,0.0975,0.158
-0.1675,0.098,0.159
-0.166,0.098,0.1605
-0.1635,0.099,0.163
-0.1645,0.1005,0.1625
-0.168,0.1005,0.16
-0.169,0.0975,0.1635
-0.167,0.0985,0.164
-0.1675,0.103,0.1605
-0.1635,0.1025,0.163
-0.163,0.1,0.162
-0.1665,0.1,0.164
-0.1665,0.1015,0.171
-0.171,0.0975,0.1715
-0.171,0.096,0.171
-0.1735,0.098,0.17
-0.1785,0.0965,0.1685
-0.181,0.0955,0.1665
-0.1825,0.094,0.166
-0.176,0.097,0.166
-0.1705,0.0995,0.1665
-0.171,0.0995,0.1655
-0.171,0.1015,0.1635
-0.168,0.102,0.161
-0.164,0.103,0.1605
-0.1655,0.1015,0.161
-0.171,0.0985,0.1615
-0.1695,0.1005,0.1645
-0.165,0.1045,0.1695
-0.1615,0.1055,0.169
-0.167,0.104,0.164
-0.1725,0.1035,0.163
-0.1695,0.103,0.168
-0.169,0.1035,0.1765
-0.1775,0.1025,0.1775
-0.181,0.103,0.1805
-0.1735,0.1025,0.1815
-0.17,0.1035,0.178
-0.168,0.1035,0.1735
-0.1675,0.103,0.172
-0.1675,0.106,0.176
-0.1655,0.1065,0.1775
-0.1625,0.1085,0.1795
-0.1635,0.107,0.178
-0.165,0.106,0.181
-0.1635,0.1065,0.1855
-0.167,0.1045,0.1875
-0.1725,0.104,0.1895
-0.175,0.105,0.192
-0.1745,0.1055,0.188
-0.1745,0.1055,0.1825
-0.168,0.107,0.185
-0.166,0.1075,0.1855
-0.1665,0.109,0.184
-0.1635,0.109,0.1865
-0.169,0.1065,0.185
-0.173,0.1065,0.178
-0.1755,0.1065,0.179
-0.176,0.1055,0.1815
-0.1765,0.104,0.1815
-0.1775,0.101,0.185
-0.174,0.1005,0.1895
-0.174,0.098,0.193
-0.1775,0.092,0.1905
-0.184,0.0845,0.1885
-0.1965,0.072,0.1895
-0.207,0.0585,0.194
-0.219,0.0465,0.1985
-0.229,0.036,0.208
-0.2425,0.0245,0.219
-0.258,0.011,0.218
-0.258,0.0015,0.219
-0.2645,-0.01,0.2095
-0.278,-0.024,0.2
-0.287,-0.0395,0.193
-0.296,-0.056,0.181
-0.296,-0.067,0.171
-0.289,-0.07,0.1605
-0.2895,-0.0735,0.16
-0.2865,-0.074,0.16
-0.283,-0.062,0.1665
-0.27,-0.0425,0.169
-0.244,-0.013,0.169
-0.2255,0.0225,0.183
-0.1895,0.0665,0.201
-0.142,0.122,0.2135
-0.0905,0.1845,0.2285
-0.0415,0.2465,0.238
0.0065,0.314,0.244
0.057,0.3865,0.262
0.1075,0.4575,0.2815
0.165,0.536,0.303
0.2205,0.63,0.341
0.2775,0.7305,0.4005
0.3245,0.8245,0.465
0.3635,0.9145,0.532
0.401,1.0035,0.6045
0.4305,1.0895,0.6845
0.462,1.1655,0.762
0.491,1.2365,0.829
0.5085,1.3075,0.902
0.5165,1.3705,0.977
0.523,1.428,1.0505
0.546,1.5085,1.1285
0.564,1.578,1.17
0.552,1.611,1.1965
0.534,1.6305,1.2295
0.511,1.62,1.234
0.471,1.5765,1.209
0.423,1.504,1.1575
0.3825,1.4155,1.071
0.36,1.326,0.9595
0.3375,1.244,0.878
0.3095,1.1755,0.819
0.272,1.105,0.776
0.2335,1.0375,0.7495
0.199,0.969,0.713
0.1635,0.8945,0.666
0.1205,0.82,0.6325
0.0625,0.729,0.607
0.0135,0.63,0.5805
-0.0305,0.536,0.5635
-0.07,0.445,0.5315
-0.0985,0.3655,0.4925
-0.1335,0.2905,0.452
-0.1765,0.2015,0.412
-0.209,0.1315,0.3805
-0.2165,0.1005,0.35
-0.212,0.0805,0.311
-0.2135,0.063,0.276
-0.2185,0.037,0.243
-0.2235,0.0105,0.211
-0.22,0.0005,0.194
-0.2155,-0.0105,0.1685
-0.2155,-0.0135,0.1415
-0.209,-0.0055,0.1285
-0.203,-0.0005,0.1225
-0.198,0.0075,0.119
-0.1945,0.0175,0.127
-0.187,0.0295,0.1385
-0.1805,0.039,0.145
-0.179,0.0495,0.156
-0.174,0.0605,0.159
-0.1785,0.067,0.1625
-0.181,0.0715,0.1725
-0.178,0.079,0.1795
-0.1725,0.091,0.1915
-0.165,0.102,0.207
-0.16,0.112,0.221
-0.156,0.12,0.2345
-0.157,0.126,0.24
-0.1575,0.131,0.241
-0.157,0.1325,0.2405
-0.156,0.133,0.248
-0.1515,0.1355,0.2565
-0.151,0.1385,0.252
-0.1555,0.137,0.244
-0.157,0.137,0.2435
-0.156,0.1365,0.245
-0.1545,0.1365,0.243
-0.156,0.1375,0.2465
-0.1575,0.1355,0.2465
-0.155,0.1355,0.241
-0.1515,0.137,0.2375
-0.15,0.1365,0.2385
-0.1505,0.136,0.244
-0.151,0.137,0.247
-0.146,0.1375,0.247
-0.145,0.1385,0.2445
-0.1495,0.1375,0.246
-0.15,0.1375,0.249
-0.149,0.139,0.2485
-0.146,0.138,0.247
-0.1485,0.139,0.246
-0.15,0.1415,0.2445
-0.151,0.1405,0.243
-0.154,0.1395,0.2435
-0.1545,0.1405,0.245
-0.151,0.141,0.246
-0.1455,0.1435,0.242
-0.142,0.1435,0.2395
-0.14,0.145,0.2435
-0.1405,0.148,0.2445
-0.14,0.1485,0.241
-0.135,0.152,0.2365
-0.133,0.152,0.2365
-0.1345,0.15,0.241
-0.1385,0.15,0.2405
-0.14,0.15,0.2395
-0.137,0.151,0.243
-0.136,0.152,0.25
-0.1365,0.1525,0.2455
-0.136,0.1515,0.247
-0.1375,0.153,0.2545
-0.134,0.1565,0.254
-0.1355,0.1545,0.258
-0.141,0.152,0.253
-0.138,0.1555,0.2445
-0.1385,0.158,0.2385
-0.132,0.159,0.2315
-0.127,0.159,0.2315
-0.124,0.158,0.237
-0.122,0.1625,0.241
-0.1205,0.1655,0.24
-0.1145,0.165,0.241
-0.119,0.1615,0.2405
-0.1225,0.16,0.2375
-0.123,0.1615,0.242
-0.1245,0.1625,0.2445
-0.126,0.163,0.2485
-0.127,0.162,0.2535
-0.1265,0.163,0.2445
-0.1215,0.165,0.2405
-0.1185,0.168,0.2415
-0.121,0.1685,0.2415
-0.1225,0.1685,0.2415
-0.1235,0.1705,0.2415
-0.1235,0.17,0.2395
-0.1225,0.169,0.2395
-0.1225,0.1695,0.24
-0.122,0.1725,0.2365
-0.1195,0.175,0.241
-0.1195,0.174,0.2435
-0.12,0.1755,0.239
-0.1195,0.1765,0.24
-0.1185,0.176,0.244
-0.115,0.1775,0.246
-0.1155,0.1775,0.244
-0.1155,0.1805,0.241
-0.1115,0.184,0.245
-0.1075,0.1855,0.247
-0.1065,0.185,0.2465
-0.108,0.1845,0.2485
-0.1105,0.186,0.2505
-0.1095,0.1855,0.253
-0.1075,0.186,0.254
-0.1045,0.188,0.252
-0.102,0.1895,0.254
-0.1035,0.189,0.2525
-0.101,0.191,0.25
-0.1025,0.1935,0.2535
-0.102,0.194,0.2525
-0.096,0.1965,0.2535
-0.096,0.1965,0.2545
-0.0985,0.196,0.251
-0.0995,0.1985,0.251
