i,vx,vy
-0.658,-0.0725,1.6095
-0.66,-0.0605,1.629
-0.6575,-0.0425,1.6465
-0.652,-0.026,1.661
-0.643,-0.0065,1.669
-0.6375,0.009,1.6765
-0.6375,0.0205,1.684
-0.633,0.0365,1.6925
-0.6245,0.0545,1.7015
-0.614,0.0705,1.712
-0.6035,0.088,1.7215
-0.595,0.1005,1.726
-0.589,0.109,1.7305
-0.5815,0.1205,1.7345
-0.5745,0.1305,1.74
-0.568,0.1395,1.7405
-0.5635,0.144,1.744
-0.5625,0.1445,1.75
-0.561,0.145,1.75
-0.559,0.1495,1.7515
-0.559,0.1495,1.753
-0.559,0.1495,1.753
-0.5585,0.1525,1.752
-0.5615,0.155,1.7515
-0.561,0.1565,1.753
-0.5585,0.155,1.7555
-0.561,0.157,1.756
-0.5625,0.1585,1.756
-0.5625,0.1575,1.758
-0.5615,0.156,1.7575
-0.557,0.159,1.7575
-0.5555,0.159,1.758
-0.558,0.155,1.76
-0.559,0.158,1.76
-0.5575,0.159,1.761
-0.5545,0.1595,1.7615
-0.553,0.1595,1.761
-0.5515,0.1595,1.764
-0.55,0.1595,1.764
-0.5525,0.161,1.7625
-0.5525,0.1625,1.764
-0.551,0.1635,1.7655
-0.5495,0.1635,1.7655
-0.549,0.1625,1.7655
-0.549,0.166,1.7675
-0.5485,0.1655,1.769
-0.5485,0.166,1.77
-0.5495,0.1695,1.768
-0.5525,0.169,1.767
-0.5505,0.1675,1.7695
-0.5495,0.169,1.769
-0.55,0.17,1.7675
-0.548,0.167,1.768
-0.5465,0.1685,1.7675
-0.5425,0.1695,1.7675
-0.5445,0.171,1.767
-0.5445,0.1725,1.768
-0.546,0.1705,1.7675
-0.5475,0.171,1.7645
-0.545,0.1715,1.7655
-0.546,0.1725,1.766
-0.5465,0.1735,1.766
-0.549,0.174,1.767
-0.549,0.176,1.7685
-0.546,0.177,1.7695
-0.545,0.1775,1.77
-0.545,0.179,1.772
-0.544,0.1775,1.7735
-0.5455,0.178,1.772
-0.544,0.1795,1.7725
-0.5415,0.1805,1.7715
-0.541,0.1825,1.7715
-0.5385,0.183,1.7725
-0.5365,0.1845,1.773
-0.534,0.187,1.7725
-0.535,0.1855,1.7715
-0.533,0.1855,1.7705
-0.5305,0.189,1.772
-0.533,0.1875,1.774
-0.5355,0.1855,1.7715
-0.5385,0.1845,1.7705
-0.537,0.186,1.7715
-0.5325,0.1895,1.7705
-0.5315,0.1945,1.771
-0.534,0.1915,1.773
-0.5385,0.186,1.772
-0.538,0.1885,1.771
-0.5345,0.191,1.7695
-0.537,0.189,1.77
-0.5385,0.1885,1.771
-0.5385,0.19,1.7705
-0.535,0.1915,1.7725
-0.5305,0.195,1.7725
-0.5295,0.1945,1.7725
-0.5255,0.194,1.7725
-0.522,0.1965,1.7725
-0.5245,0.1955,1.7725
-0.5235,0.197,1.7715
-0.5235,0.199,1.7705
-0.522,0.202,1.768
-0.5175,0.205,1.768
-0.5175,0.2025,1.771
-0.518,0.203,1.773
-0.518,0.205,1.774
-0.518,0.2055,1.774
-0.518,0.2075,1.774
-0.517,0.2085,1.7735
-0.5195,0.207,1.7735
-0.52,0.207,1.774
-0.516,0.2105,1.774
-0.514,0.2125,1.773
-0.5135,0.2145,1.7745
-0.511,0.217,1.7745
-0.5065,0.218,1.774
-0.5035,0.221,1.7715
-0.5015,0.223,1.771
-0.501,0.2225,1.773
-0.4995,0.225,1.772
-0.501,0.2275,1.774
-0.5005,0.2285,1.775
-0.4975,0.232,1.7755
-0.4975,0.233,1.776
-0.4965,0.2335,1.7755
-0.5,0.2325,1.776
-0.5035,0.2325,1.777
-0.4985,0.2375,1.7785
-0.495,0.238,1.777
-0.4935,0.2395,1.777
-0.493,0.2415,1.779
-0.4905,0.244,1.7805
-0.4895,0.2495,1.781
-0.4905,0.249,1.7795
-0.4855,0.2505,1.7795
-0.4785,0.256,1.781
-0.4775,0.257,1.778
-0.477,0.26,1.777
-0.4725,0.263,1.781
-0.4705,0.263,1.781
-0.469,0.265,1.778
-0.467,0.269,1.7775
-0.467,0.274,1.7785
-0.4645,0.2775,1.78
-0.4555,0.28,1.781
-0.4515,0.283,1.7815
-0.456,0.2845,1.785
-0.453,0.2905,1.788
-0.45,0.295,1.7865
-0.4495,0.294,1.7865
-0.447,0.299,1.7885
-0.4455,0.3025,1.79
-0.4435,0.305,1.789
-0.443,0.3085,1.7905
-0.4395,0.3125,1.792
-0.4385,0.319,1.792
-0.435,0.322,1.7905
-0.429,0.327,1.7895
-0.4305,0.329,1.793
-0.43,0.3275,1.794
-0.425,0.3335,1.7955
-0.4225,0.34,1.795
-0.4225,0.344,1.7945
-0.4205,0.348,1.7975
-0.415,0.353,1.7975
-0.41,0.3595,1.798
-0.408,0.365,1.801
-0.404,0.37,1.8025
-0.3975,0.375,1.8015
-0.3945,0.378,1.8025
-0.3925,0.3825,1.8035
-0.388,0.388,1.806
-0.3845,0.392,1.81
-0.3795,0.3985,1.8105
-0.375,0.4055,1.8135
-0.3705,0.4105,1.8135
-0.3675,0.4175,1.8125
-0.364,0.4215,1.8145
-0.3595,0.4255,1.815
-0.3545,0.4305,1.817
-0.346,0.438,1.819
-0.3425,0.4455,1.8205
-0.34,0.447,1.8205
-0.337,0.4515,1.822
-0.3345,0.4565,1.823
-0.3335,0.459,1.8235
-0.3325,0.4645,1.8255
-0.329,0.469,1.8265
-0.328,0.471,1.8285
-0.3265,0.4725,1.828
-0.324,0.475,1.829
-0.3205,0.4775,1.831
-0.3145,0.4835,1.83
-0.3105,0.488,1.832
-0.309,0.491,1.8345
-0.3075,0.4945,1.834
-0.304,0.497,1.833
-0.3015,0.5,1.835
-0.2955,0.5015,1.837
-0.2885,0.5025,1.838
-0.2895,0.5045,1.8375
-0.288,0.509,1.838
-0.2855,0.5115,1.839
-0.2845,0.5145,1.841
-0.2845,0.515,1.8425
-0.2835,0.514,1.8415
-0.2835,0.5185,1.842
-0.2885,0.5205,1.843
-0.2865,0.5205,1.843
-0.286,0.521,1.842
-0.2885,0.5215,1.8445
-0.2855,0.5245,1.847
-0.2845,0.527,1.845
-0.287,0.526,1.8465
-0.286,0.5255,1.8475
-0.285,0.527,1.848
-0.286,0.525,1.8465
-0.2885,0.5235,1.8465
-0.2875,0.522,1.8475
-0.2875,0.5195,1.8465
-0.2895,0.518,1.8475
-0.2865,0.518,1.8475
-0.2855,0.5205,1.8455
-0.2855,0.5205,1.8455
-0.2895,0.5125,1.8455
-0.2935,0.506,1.8465
-0.298,0.5035,1.85
-0.301,0.501,1.8515
-0.302,0.4965,1.85
-0.3085,0.487,1.847
-0.313,0.481,1.849
-0.316,0.476,1.8485
-0.3185,0.47,1.8475
-0.326,0.4655,1.847
-0.33,0.4605,1.8435
-0.3315,0.455,1.8415
-0.3385,0.4465,1.8405
-0.345,0.439,1.8385
-0.353,0.4305,1.8385
-0.3585,0.423,1.8385
-0.3605,0.4185,1.8375
-0.363,0.4155,1.836
-0.3705,0.4075,1.834
-0.3795,0.395,1.833
-0.3835,0.388,1.8305
-0.392,0.3805,1.8285
-0.4005,0.3715,1.828
-0.405,0.365,1.826
-0.4115,0.358,1.8225
-0.4165,0.35,1.821
-0.42,0.3395,1.819
-0.4225,0.333,1.819
-0.426,0.328,1.8165
-0.434,0.3195,1.8145
-0.4405,0.311,1.8125
-0.4465,0.3045,1.81
-0.4505,0.296,1.8095
-0.452,0.2885,1.807
-0.457,0.281,1.808
-0.462,0.2735,1.8045
-0.4675,0.2695,1.8005
-0.4745,0.2625,1.801
-0.478,0.253,1.7985
-0.479,0.25,1.7975
-0.4795,0.247,1.796
-0.4865,0.2385,1.7955
-0.494,0.2325,1.795
-0.4975,0.2265,1.7925
-0.5025,0.221,1.791
-0.5055,0.217,1.7895
-0.507,0.211,1.7875
-0.511,0.2055,1.7865
-0.5155,0.2015,1.7845
-0.5185,0.196,1.7835
-0.518,0.1925,1.7835
-0.5205,0.19,1.7805
-0.522,0.1865,1.7785
-0.5245,0.182,1.7795
-0.5275,0.1785,1.78
-0.5295,0.1775,1.7765
-0.531,0.174,1.7755
-0.5305,0.1705,1.774
-0.5325,0.169,1.773
-0.5315,0.1675,1.7745
-0.5325,0.1655,1.774
-0.535,0.1645,1.773
-0.537,0.161,1.7735
-0.539,0.1575,1.7735
-0.538,0.159,1.771
-0.538,0.157,1.77
-0.5425,0.1545,1.7695
-0.5455,0.152,1.77
-0.542,0.1505,1.7685
-0.5445,0.1505,1.7675
-0.548,0.149,1.7675
-0.546,0.1485,1.7675
-0.5475,0.1465,1.7665
-0.5455,0.146,1.7665
-0.546,0.149,1.7675
-0.548,0.1475,1.7655
-0.5485,0.144,1.7665
-0.547,0.1455,1.7665
-0.546,0.1455,1.7635
-0.5465,0.143,1.763
-0.5455,0.141,1.763
-0.551,0.1415,1.761
-0.5515,0.141,1.761
-0.546,0.144,1.7635
-0.548,0.143,1.764
-0.551,0.1385,1.7645
-0.552,0.139,1.765
-0.553,0.14,1.764
-0.553,0.141,1.764
-0.552,0.1385,1.7635
-0.551,0.1375,1.7635
-0.552,0.1375,1.7625
-0.55,0.1355,1.763
-0.5485,0.1365,1.763
-0.5495,0.137,1.7635
-0.546,0.138,1.7615
-0.5475,0.138,1.76
-0.5485,0.1355,1.76
-0.5495,0.1345,1.7605
-0.5515,0.1335,1.762
-0.551,0.131,1.761
-0.5495,0.13,1.7595
-0.5455,0.1305,1.7605
-0.548,0.13,1.7625
-0.5465,0.127,1.762
-0.5475,0.127,1.7605
-0.554,0.1265,1.761
-0.5515,0.124,1.7615
-0.548,0.122,1.7615
-0.548,0.1235,1.76
-0.549,0.125,1.7605
-0.55,0.124,1.7605
-0.551,0.124,1.7585
-0.5525,0.1215,1.759
-0.5545,0.1185,1.759
-0.556,0.1185,1.7575
-0.5515,0.122,1.7585
-0.5505,0.124,1.759
-0.555,0.123,1.7585
-0.556,0.1195,1.758
-0.5535,0.1185,1.758
-0.5515,0.119,1.76
-0.5525,0.119,1.7625
-0.553,0.12,1.762
-0.5525,0.1205,1.758
-0.553,0.122,1.7575
-0.5525,0.1205,1.761
-0.556,0.1165,1.7625
-0.556,0.1195,1.761
-0.5535,0.121,1.7605
-0.5555,0.1215,1.7595
-0.557,0.1215,1.7595
-0.5565,0.1185,1.757
-0.5545,0.1185,1.757
-0.553,0.1195,1.758
-0.552,0.123,1.7595
-0.5555,0.122,1.7585
-0.555,0.12,1.7555
-0.5495,0.122,1.7575
-0.549,0.124,1.7565
-0.5475,0.123,1.758
-0.55,0.1215,1.7595
-0.553,0.1235,1.7595
-0.554,0.123,1.76
-0.5555,0.124,1.76
-0.557,0.1235,1.762
-0.5565,0.1235,1.7605
-0.558,0.1215,1.7605
-0.559,0.1215,1.761
-0.556,0.1235,1.7625
-0.5555,0.1235,1.765
-0.5565,0.1235,1.7625
-0.5565,0.123,1.761
-0.556,0.1235,1.7615
-0.5555,0.1225,1.7605
-0.5535,0.125,1.762
-0.5525,0.126,1.762
-0.5525,0.127,1.76
-0.5525,0.1285,1.762
-0.5495,0.1295,1.7625
-0.549,0.1315,1.763
-0.551,0.129,1.7645
-0.548,0.1295,1.765
-0.547,0.1285,1.7635
-0.5505,0.126,1.761
-0.5535,0.1275,1.7615
-0.551,0.128,1.764
-0.551,0.129,1.764
-0.5485,0.129,1.7615
-0.546,0.126,1.763
-0.549,0.1255,1.7635
-0.5475,0.1275,1.763
-0.5445,0.1285,1.7635
-0.542,0.1285,1.7605
-0.541,0.1295,1.76
-0.5425,0.131,1.76
-0.5415,0.134,1.7605
-0.5435,0.1325,1.762
-0.543,0.1285,1.763
-0.5425,0.132,1.76
-0.5445,0.1325,1.759
-0.544,0.132,1.759
-0.5465,0.132,1.7595
-0.5475,0.13,1.7615
-0.549,0.13,1.7575
-0.5465,0.1305,1.7575
-0.545,0.1295,1.758
-0.5495,0.13,1.758
-0.548,0.129,1.7595
-0.5465,0.127,1.7595
-0.547,0.1295,1.7605
-0.5485,0.1295,1.7605
-0.55,0.1295,1.757
-0.5505,0.129,1.757
-0.5495,0.1285,1.7585
-0.5455,0.1295,1.7585
-0.543,0.13,1.7595
-0.541,0.1305,1.7595
-0.538,0.134,1.7605
-0.5395,0.1345,1.7605
-0.5415,0.133,1.76
-0.5415,0.1325,1.759
-0.5395,0.1325,1.758
-0.538,0.1355,1.7585
-0.5405,0.1335,1.757
-0.5415,0.131,1.756
-0.538,0.133,1.757
-0.5375,0.1335,1.7585
-0.538,0.1335,1.757
-0.537,0.1325,1.7545
-0.54,0.1335,1.7545
-0.541,0.134,1.756
-0.542,0.1315,1.754
-0.545,0.131,1.753
-0.542,0.131,1.7545
-0.5365,0.135,1.7535
-0.5365,0.1375,1.752
-0.5405,0.136,1.753
-0.5415,0.135,1.7535
-0.5385,0.1345,1.7535
-0.5375,0.1345,1.7525
-0.538,0.1345,1.7515
-0.539,0.134,1.7525
-0.5385,0.1385,1.7525
-0.5405,0.1385,1.7515
-0.5455,0.1325,1.7535
-0.5435,0.1335,1.755
-0.539,0.134,1.753
-0.5385,0.1335,1.7515
-0.539,0.1325,1.752
-0.5375,0.131,1.7525
-0.5385,0.1305,1.753
-0.537,0.13,1.7515
-0.535,0.131,1.7495
-0.535,0.131,1.7515
-0.535,0.1295,1.751
-0.536,0.13,1.7525
-0.536,0.1315,1.7515
-0.536,0.13,1.75
-0.5355,0.1295,1.75
-0.5355,0.129,1.751
-0.538,0.128,1.7485
-0.541,0.127,1.745
-0.5455,0.1255,1.746
-0.545,0.125,1.747
-0.5435,0.125,1.7455
-0.5445,0.122,1.745
-0.546,0.1205,1.747
-0.548,0.1205,1.746
-0.5465,0.118,1.747
-0.5455,0.1195,1.7475
-0.546,0.1195,1.7495
-0.5455,0.118,1.7485
-0.547,0.1185,1.7475
-0.547,0.119,1.749
-0.544,0.1205,1.745
-0.542,0.119,1.7445
-0.542,0.115,1.744
-0.5425,0.115,1.7425
-0.542,0.115,1.744
-0.542,0.116,1.743
-0.543,0.1165,1.7425
-0.541,0.115,1.743
-0.541,0.115,1.7435
-0.5425,0.1155,1.743
-0.5425,0.1145,1.7425
-0.5415,0.1145,1.745
-0.5405,0.115,1.745
-0.542,0.1175,1.7445
-0.544,0.118,1.7445
-0.5485,0.114,1.743
-0.5465,0.1145,1.7425
-0.545,0.1135,1.741
-0.546,0.113,1.7425
-0.545,0.113,1.743
-0.5485,0.112,1.742
-0.549,0.112,1.741
-0.5485,0.1125,1.74
-0.5455,0.112,1.7425
-0.5445,0.11,1.7435
-0.545,0.109,1.744
-0.544,0.1075,1.7425
-0.5445,0.108,1.7435
-0.547,0.1075,1.7425
-0.548,0.1075,1.7425
-0.5455,0.106,1.744
-0.5485,0.105,1.742
-0.5495,0.105,1.741
-0.5475,0.105,1.741
-0.5495,0.1035,1.7415
-0.55,0.1045,1.741
-0.5495,0.105,1.7405
-0.549,0.103,1.7385
-0.5495,0.1045,1.7365
-0.5495,0.104,1.739
-0.548,0.107,1.7405
-0.547,0.1045,1.738
-0.547,0.1015,1.737
-0.546,0.1045,1.737
-0.5485,0.1035,1.737
-0.549,0.102,1.7405
-0.5455,0.102,1.7405
-0.546,0.1055,1.741
-0.5495,0.105,1.7405
-0.551,0.1035,1.7365
-0.5495,0.105,1.7385
-0.548,0.1035,1.741
-0.5485,0.103,1.739
-0.55,0.1005,1.738
-0.55,0.099,1.7375
-0.549,0.099,1.737
-0.5495,0.1,1.736
-0.549,0.0985,1.7355
-0.547,0.0965,1.736
-0.5435,0.099,1.7365
-0.5415,0.1005,1.7365
-0.542,0.099,1.7355
-0.5445,0.0985,1.7325
-0.547,0.099,1.7335
-0.547,0.0995,1.7335
-0.546,0.098,1.7335
-0.546,0.096,1.7345
-0.548,0.1,1.7355
-0.55,0.0995,1.736
-0.5515,0.097,1.735
-0.551,0.0965,1.7355
-0.55,0.097,1.7355
-0.55,0.101,1.738
-0.549,0.0995,1.7375
-0.549,0.097,1.7375
-0.5515,0.0965,1.738
-0.553,0.0965,1.7345
-0.5535,0.0955,1.7345
-0.5525,0.0935,1.7365
-0.5535,0.094,1.7375
-0.554,0.095,1.7365
-0.5525,0.098,1.7375
-0.553,0.0995,1.74
-0.551,0.0975,1.739
-0.549,0.099,1.7385
-0.548,0.0995,1.7365
-0.55,0.0995,1.7375
-0.5505,0.1025,1.7395
-0.548,0.105,1.739
-0.545,0.0995,1.7375
-0.5425,0.0965,1.7375
-0.5415,0.0985,1.7405
-0.5385,0.1005,1.742
-0.536,0.1015,1.741
-0.5365,0.1015,1.74
-0.538,0.1005,1.741
-0.5395,0.099,1.741
-0.539,0.1005,1.741
-0.536,0.102,1.741
-0.5335,0.103,1.741
-0.5325,0.1045,1.742
-0.5325,0.105,1.741
-0.5305,0.105,1.7425
-0.5315,0.106,1.7435
-0.5325,0.1065,1.742
-0.53,0.1085,1.745
-0.527,0.1115,1.747
-0.5205,0.1125,1.749
-0.5205,0.111,1.75
-0.5255,0.1105,1.7475
-0.5245,0.113,1.7465
-0.522,0.112,1.7465
-0.5205,0.113,1.746
-0.517,0.117,1.743
-0.516,0.115,1.7425
-0.5185,0.113,1.7455
-0.516,0.1145,1.7425
-0.515,0.114,1.7405
-0.518,0.1155,1.741
-0.515,0.115,1.7425
-0.5095,0.1165,1.744
-0.51,0.1205,1.744
-0.513,0.116,1.7465
-0.514,0.1135,1.7455
-0.515,0.117,1.744
-0.5145,0.118,1.744
-0.5125,0.116,1.744
-0.514,0.1155,1.7435
-0.52,0.114,1.7375
-0.521,0.1125,1.733
-0.52,0.1125,1.7305
-0.521,0.1085,1.728
-0.5225,0.106,1.725
-0.523,0.1075,1.7215
-0.5245,0.1055,1.72
-0.524,0.107,1.714
-0.517,0.111,1.7115
-0.5065,0.1145,1.7115
-0.498,0.1195,1.7085
-0.5025,0.1205,1.7085
-0.5035,0.122,1.7075
-0.5005,0.1235,1.7075
-0.4985,0.1235,1.708
-0.4975,0.1255,1.707
-0.5015,0.1265,1.7075
-0.498,0.127,1.707
-0.4945,0.128,1.7105
-0.4935,0.1285,1.7135
-0.4945,0.1275,1.7105
-0.4975,0.128,1.712
-0.492,0.13,1.7165
-0.486,0.1325,1.718
-0.484,0.135,1.7195
-0.484,0.139,1.7225
-0.484,0.1405,1.728
-0.485,0.141,1.73
-0.486,0.141,1.7295
-0.484,0.139,1.7285
-0.4835,0.1405,1.729
-0.4845,0.1425,1.73
-0.4875,0.1415,1.728
-0.4885,0.1395,1.727
-0.4885,0.139,1.725
-0.488,0.138,1.725
-0.4855,0.1365,1.727
-0.4795,0.1345,1.727
-0.476,0.1335,1.7255
-0.474,0.1325,1.7255
-0.477,0.1335,1.7265
-0.485,0.132,1.7265
-0.4875,0.1315,1.727
-0.4925,0.1295,1.7295
-0.5025,0.1265,1.731
-0.507,0.127,1.7315
-0.511,0.1225,1.733
-0.517,0.1205,1.7365
-0.523,0.1195,1.7405
-0.5285,0.115,1.738
-0.5285,0.1145,1.7405
-0.527,0.114,1.743
-0.5285,0.114,1.7395
-0.5295,0.1135,1.7395
-0.5345,0.1085,1.74
-0.5395,0.108,1.74
-0.539,0.1055,1.7395
-0.539,0.1025,1.738
-0.5425,0.1,1.7385
-0.5475,0.098,1.7385
-0.549,0.0955,1.7365
-0.5495,0.0905,1.736
-0.5525,0.089,1.7355
-0.5535,0.0875,1.7365
-0.5565,0.087,1.7375
-0.5615,0.0845,1.7355
-0.565,0.0805,1.7345
-0.5665,0.08,1.735
-0.5635,0.0805,1.734
-0.56,0.079,1.7325
-0.5625,0.077,1.7325
-0.566,0.0765,1.731
-0.5675,0.0755,1.731
-0.566,0.0755,1.7305
-0.5655,0.0745,1.729
-0.5665,0.0755,1.731
-0.5675,0.077,1.73
-0.5705,0.078,1.732
-0.5745,0.076,1.7345
-0.576,0.0745,1.733
-0.571,0.0785,1.7335
-0.57,0.0785,1.735
-0.57,0.078,1.7335
-0.57,0.077,1.7325
-0.5715,0.076,1.7335
-0.5705,0.0785,1.733
-0.5685,0.077,1.734
-0.566,0.0775,1.733
-0.566,0.0805,1.7305
-0.565,0.0775,1.732
-0.5605,0.0775,1.735
-0.5575,0.0825,1.735
-0.5565,0.0835,1.7325
-0.5605,0.085,1.7305
-0.563,0.084,1.73
-0.563,0.0815,1.7315
-0.5615,0.085,1.731
-0.562,0.087,1.7315
-0.5595,0.087,1.733
-0.559,0.0895,1.735
-0.561,0.0875,1.735
-0.5625,0.082,1.7355
-0.5645,0.0855,1.7355
-0.5585,0.0955,1.7365
-0.556,0.0985,1.7445
-0.555,0.099,1.752
-0.552,0.1045,1.7595
-0.549,0.114,1.766
-0.5455,0.123,1.7725
-0.55,0.129,1.781
-0.553,0.132,1.7925
-0.5545,0.1405,1.803
-0.553,0.1535,1.816
-0.5445,0.1685,1.8295
-0.532,0.192,1.838
-0.5085,0.232,1.8465
-0.483,0.274,1.8565
-0.458,0.3085,1.869
-0.421,0.368,1.881
-0.389,0.428,1.8935
-0.358,0.4835,1.907
-0.3105,0.5525,1.918
-0.263,0.6195,1.9295
-0.2085,0.6985,1.9415
-0.1675,0.7565,1.946
-0.151,0.788,1.951
-0.1325,0.815,1.953
-0.1195,0.8265,1.949
-0.1085,0.84,1.9465
-0.0875,0.867,1.9445
-0.072,0.8945,1.9375
-0.0685,0.91,1.9295
-0.055,0.936,1.9285
-0.0485,0.9675,1.9225
-0.0575,0.986,1.913
-0.0665,0.99,1.899
-0.0875,0.9745,1.8845
-0.1025,0.9565,1.8685
-0.118,0.9245,1.8515
-0.1475,0.8765,1.849
-0.1945,0.8,1.8335
-0.282,0.6795,1.808
-0.353,0.5785,1.7665
-0.3945,0.4925,1.708
-0.4385,0.393,1.665
-0.482,0.289,1.63
-0.513,0.1935,1.592
-0.5395,0.1055,1.5595
-0.5805,-0.0095,1.5335
-0.627,-0.13,1.5185
-0.667,-0.214,1.5135
-0.6835,-0.252,1.511
-0.6925,-0.264,1.512
-0.693,-0.2575,1.5145
-0.6865,-0.237,1.5275
-0.6805,-0.211,1.5445
-0.665,-0.181,1.558
-0.6545,-0.1605,1.5655
-0.655,-0.1455,1.5765
-0.6535,-0.1275,1.593
-0.6505,-0.113,1.608
-0.645,-0.0925,1.6255
-0.635,-0.067,1.6395
-0.6315,-0.0535,1.6505
-0.628,-0.0415,1.6565
-0.6245,-0.026,1.665
-0.621,-0.013,1.6755
-0.606,0.005,1.686
-0.5925,0.0215,1.697
-0.585,0.034,1.7025
-0.5765,0.046,1.7115
-0.572,0.054,1.715
-0.5655,0.062,1.7185
-0.5555,0.0705,1.723
-0.5515,0.0765,1.7275
-0.5515,0.0825,1.7305
-0.555,0.084,1.7305
-0.559,0.082,1.7305
-0.559,0.084,1.731
-0.561,0.085,1.735
-0.563,0.0855,1.7355
-0.5625,0.089,1.7365
-0.563,0.0905,1.7355
-0.5625,0.092,1.737
-0.5625,0.094,1.7385
-0.562,0.092,1.736
-0.5605,0.089,1.736
-0.5615,0.09,1.736
-0.559,0.0895,1.737
-0.556,0.09,1.7365
-0.5555,0.089,1.738
-0.5515,0.0895,1.74
-0.5505,0.094,1.7405
-0.5525,0.0915,1.74
-0.552,0.09,1.737
-0.5525,0.0915,1.7395
-0.5525,0.0925,1.7415
-0.5525,0.0935,1.7415
-0.5555,0.094,1.7425
-0.5555,0.0975,1.7425
-0.553,0.0965,1.7435
-0.552,0.096,1.743
-0.5545,0.096,1.7425
-0.5555,0.096,1.743
-0.5575,0.099,1.7445
-0.559,0.099,1.744
-0.556,0.097,1.7455
-0.557,0.1,1.7465
-0.553,0.101,1.745
-0.5495,0.1025,1.7435
-0.549,0.1045,1.7455
-0.549,0.102,1.7455
-0.5485,0.1045,1.7465
-0.5475,0.1055,1.746
-0.5485,0.105,1.745
-0.549,0.1045,1.7455
-0.5495,0.106,1.7455
-0.5485,0.108,1.746
-0.549,0.1075,1.746
-0.551,0.108,1.747
-0.5525,0.107,1.745
-0.55,0.107,1.744
-0.549,0.109,1.7485
-0.547,0.1105,1.751
-0.5455,0.1125,1.7515
-0.5455,0.1145,1.7505
-0.5455,0.1145,1.7485
-0.5455,0.1155,1.7495
-0.544,0.117,1.7485
-0.5425,0.116,1.7485
-0.5395,0.1175,1.75
-0.5385,0.1185,1.749
-0.537,0.1185,1.7465
-0.535,0.12,1.748
-0.5385,0.119,1.7475
-0.539,0.1195,1.748
-0.536,0.123,1.7505
-0.5355,0.1235,1.7495
-0.5375,0.1225,1.752
-0.5365,0.122,1.753
-0.533,0.1235,1.7515
-0.5325,0.1255,1.7525
-0.5345,0.128,1.7545
-0.536,0.1285,1.7545
-0.535,0.128,1.753
-0.5355,0.1285,1.753
-0.5355,0.1295,1.7555
-0.534,0.131,1.754
-0.5345,0.1325,1.753
-0.5335,0.1345,1.753
-0.531,0.133,1.754
-0.5285,0.1315,1.7555
-0.526,0.1325,1.751
-0.5235,0.1355,1.751
-0.5215,0.1395,1.75
-0.5225,0.1415,1.749
-0.524,0.1375,1.7535
-0.522,0.139,1.7545
-0.5205,0.1435,1.7545
-0.5185,0.141,1.7545
-0.515,0.142,1.754
-0.517,0.145,1.7545
-0.5125,0.148,1.7545
-0.5105,0.1485,1.756
-0.515,0.1485,1.7545
-0.5145,0.148,1.7545
-0.514,0.149,1.7565
-0.5135,0.1505,1.7565
-0.5145,0.1505,1.7555
-0.512,0.151,1.7535
-0.5095,0.1505,1.7525
-0.5055,0.1545,1.7515
-0.5005,0.159,1.752
-0.502,0.158,1.752
-0.5,0.157,1.753
-0.4985,0.1615,1.7515
-0.5015,0.165,1.7515
-0.499,0.1655,1.7545
-0.4965,0.168,1.757
-0.4955,0.17,1.7605
-0.4955,0.173,1.7575
-0.4985,0.1755,1.756
-0.4955,0.1745,1.757
-0.4945,0.1745,1.757
-0.4965,0.178,1.757
-0.4955,0.179,1.7575
-0.492,0.18,1.7595
-0.491,0.1835,1.759
-0.4905,0.184,1.759
-0.488,0.187,1.759
-0.4845,0.1915,1.762
-0.4815,0.195,1.7645
-0.478,0.198,1.764
-0.4765,0.198,1.7625
-0.475,0.1995,1.7625
-0.4715,0.2035,1.763
-0.469,0.2085,1.7625
-0.466,0.2135,1.7645
-0.4675,0.2175,1.7655
-0.472,0.2185,1.766
-0.469,0.221,1.7645
-0.467,0.2245,1.7635
-0.4655,0.2275,1.768
-0.4635,0.2305,1.7695
-0.4625,0.2335,1.769
-0.4595,0.236,1.771
-0.4565,0.238,1.772
-0.4535,0.2425,1.7735
-0.448,0.2475,1.7725
-0.44,0.256,1.772
-0.4395,0.256,1.773
-0.439,0.2525,1.7745
-0.4355,0.2585,1.776
-0.432,0.262,1.778
-0.43,0.266,1.78
-0.4275,0.271,1.778
-0.4235,0.2725,1.779
-0.424,0.276,1.78
-0.4215,0.283,1.7815
-0.4185,0.2885,1.784
-0.412,0.2945,1.7825
-0.4065,0.298,1.786
-0.409,0.302,1.7885
-0.4075,0.306,1.789
-0.404,0.308,1.79
-0.396,0.312,1.79
-0.3885,0.319,1.7905
-0.3895,0.3245,1.79
-0.3845,0.329,1.791
-0.382,0.332,1.793
-0.3785,0.337,1.7945
-0.371,0.345,1.796
-0.3695,0.3525,1.798
-0.3635,0.358,1.7995
-0.355,0.3625,1.8
-0.3505,0.3695,1.8015
-0.349,0.374,1.8035
-0.348,0.3795,1.8055
-0.345,0.388,1.806
-0.344,0.3905,1.8055
-0.343,0.392,1.8055
-0.336,0.3985,1.806
-0.3295,0.4055,1.8085
-0.3265,0.409,1.812
-0.324,0.4115,1.812
-0.3225,0.4135,1.813
-0.316,0.4185,1.8125
-0.313,0.422,1.812
-0.312,0.4235,1.812
-0.3075,0.427,1.813
-0.306,0.429,1.816
-0.3035,0.4325,1.816
-0.3025,0.4355,1.816
-0.2985,0.4355,1.815
-0.292,0.44,1.8155
-0.2915,0.444,1.818
-0.2915,0.447,1.8195
-0.2895,0.4495,1.821
-0.2865,0.4525,1.824
-0.285,0.456,1.825
-0.286,0.457,1.8235
-0.286,0.457,1.824
-0.2855,0.4585,1.825
-0.2815,0.46,1.825
-0.2765,0.4595,1.8255
-0.2755,0.461,1.828
-0.2775,0.462,1.83
-0.279,0.465,1.8305
-0.2755,0.467,1.828
-0.2715,0.465,1.827
-0.2745,0.4635,1.828
-0.2755,0.4665,1.8265
-0.2735,0.467,1.8255
-0.274,0.4625,1.8255
-0.277,0.4615,1.8265
-0.2795,0.4625,1.827
-0.2765,0.4625,1.8275
-0.2775,0.4595,1.826
-0.2805,0.4575,1.8275
-0.2845,0.457,1.8275
-0.288,0.455,1.8245
-0.29,0.453,1.8245
-0.293,0.4505,1.826
-0.296,0.4465,1.8275
-0.302,0.439,1.825
-0.3085,0.4325,1.823
-0.309,0.43,1.8225
-0.3065,0.4285,1.8235
-0.309,0.424,1.8225
-0.312,0.4165,1.8195
-0.3185,0.4115,1.8195
-0.323,0.407,1.8165
-0.3265,0.401,1.816
-0.334,0.393,1.815
-0.3375,0.3855,1.814
-0.344,0.38,1.813
-0.35,0.3725,1.813
-0.351,0.3665,1.8125
-0.3565,0.3615,1.81
-0.363,0.358,1.8085
-0.3695,0.35,1.8055
-0.375,0.337,1.805
-0.382,0.3305,1.803
-0.3925,0.324,1.8005
-0.3975,0.317,1.8005
-0.4005,0.3095,1.7975
-0.405,0.2995,1.795
-0.4085,0.294,1.792
-0.416,0.286,1.789
-0.4255,0.276,1.788
-0.43,0.2675,1.7865
-0.4335,0.259,1.784
-0.437,0.2535,1.781
-0.4365,0.2505,1.779
-0.4395,0.2445,1.7765
-0.446,0.2375,1.776
-0.456,0.232,1.7775
-0.461,0.225,1.773
-0.4605,0.2195,1.772
-0.466,0.214,1.7745
-0.4705,0.206,1.77
-0.476,0.1965,1.768
-0.4805,0.188,1.77
-0.485,0.182,1.769
-0.49,0.1775,1.7655
-0.4935,0.1735,1.7645
-0.4975,0.171,1.763
-0.503,0.166,1.761
-0.508,0.1595,1.759
-0.5055,0.155,1.757
-0.5045,0.1525,1.758
-0.5045,0.15,1.756
-0.504,0.147,1.7535
-0.5085,0.144,1.752
-0.5155,0.1415,1.75
-0.519,0.139,1.751
-0.52,0.133,1.7495
-0.522,0.1285,1.748
-0.521,0.1265,1.75
-0.524,0.1235,1.748
-0.5255,0.123,1.7455
-0.529,0.1215,1.744
-0.5325,0.1175,1.7435
-0.531,0.1155,1.7425
-0.5305,0.114,1.7415
-0.531,0.1125,1.7405
-0.535,0.1125,1.7385
-0.537,0.108,1.7395
-0.5355,0.1035,1.7415
-0.5355,0.104,1.74
-0.537,0.1055,1.739
-0.534,0.1055,1.7375
-0.531,0.104,1.7365
-0.5325,0.105,1.738
-0.5375,0.102,1.737
-0.5395,0.0965,1.733
-0.5385,0.0995,1.7325
-0.5385,0.1,1.7335
-0.5395,0.099,1.734
-0.54,0.097,1.7365
-0.542,0.094,1.7355
-0.5455,0.0945,1.7325
-0.5455,0.094,1.7295
-0.5455,0.0965,1.7305
-0.5485,0.094,1.732
-0.549,0.089,1.73
-0.549,0.088,1.73
-0.548,0.0885,1.7275
-0.545,0.0895,1.7265
-0.5455,0.089,1.7265
-0.5485,0.086,1.7255
-0.549,0.085,1.7255
-0.5465,0.0855,1.726
-0.546,0.084,1.7265
-0.5435,0.083,1.725
-0.541,0.084,1.7255
-0.543,0.0875,1.7235
-0.543,0.0855,1.723
-0.5425,0.084,1.7265
-0.5425,0.0885,1.7255
-0.5455,0.0855,1.723
-0.547,0.085,1.7235
-0.548,0.0855,1.7245
-0.5475,0.086,1.727
-0.5465,0.087,1.725
-0.5445,0.088,1.723
-0.5395,0.089,1.722
-0.5385,0.088,1.722
-0.541,0.0875,1.722
-0.542,0.087,1.72
-0.5425,0.0905,1.7185
-0.541,0.0925,1.7165
-0.5385,0.0925,1.718
-0.5385,0.0905,1.719
-0.5395,0.087,1.7195
-0.542,0.0875,1.72
-0.5445,0.0865,1.7205
-0.548,0.0835,1.7195
-0.55,0.081,1.7185
-0.551,0.083,1.7195
-0.555,0.0825,1.716
-0.552,0.0835,1.7155
-0.555,0.0875,1.7185
-0.556,0.0855,1.717
-0.551,0.086,1.7165
-0.5485,0.0855,1.7175
-0.545,0.087,1.7155
-0.545,0.088,1.7165
-0.542,0.086,1.716
-0.541,0.0885,1.7135
-0.545,0.0885,1.7145
-0.5465,0.086,1.7135
-0.544,0.0875,1.7115
-0.5405,0.0895,1.7105
-0.5405,0.09,1.713
-0.5395,0.091,1.716
-0.5385,0.0915,1.7165
-0.5415,0.0895,1.715
-0.547,0.0865,1.7145
-0.5515,0.0855,1.7155
-0.5495,0.086,1.713
-0.5475,0.088,1.713
-0.549,0.089,1.715
-0.5525,0.0885,1.714
-0.5495,0.0895,1.7125
-0.545,0.0895,1.714
-0.5485,0.093,1.714
-0.549,0.09,1.713
-0.5445,0.083,1.714
-0.542,0.0845,1.716
-0.542,0.086,1.7185
-0.54,0.086,1.715
-0.5415,0.0885,1.711
-0.545,0.0915,1.7115
-0.549,0.089,1.714
-0.5485,0.0915,1.714
-0.5435,0.0935,1.715
-0.5395,0.0925,1.715
-0.54,0.0925,1.7155
-0.5455,0.0905,1.716
-0.541,0.093,1.715
-0.538,0.0945,1.7165
-0.5425,0.0935,1.7145
-0.542,0.0955,1.714
-0.5455,0.096,1.713
-0.5425,0.0945,1.713
-0.5405,0.096,1.714
-0.541,0.0975,1.7135
-0.5355,0.0995,1.7115
-0.538,0.0995,1.709
-0.537,0.097,1.7105
-0.537,0.0985,1.7115
-0.539,0.0995,1.714
-0.5405,0.099,1.712
-0.541,0.101,1.7105
-0.536,0.1,1.71
-0.5345,0.098,1.7075
-0.532,0.0995,1.71
-0.53,0.1025,1.71
-0.5335,0.1025,1.7095
-0.535,0.101,1.709
-0.5355,0.1,1.7095
-0.535,0.1025,1.71
-0.537,0.1045,1.7075
-0.543,0.1045,1.7055
-0.54,0.103,1.7065
-0.5405,0.1005,1.7055
-0.542,0.102,1.706
-0.5335,0.1025,1.705
-0.5295,0.1055,1.7035
-0.537,0.1015,1.7065
-0.5425,0.101,1.7075
-0.539,0.1045,1.7075
-0.539,0.1015,1.705
-0.5395,0.104,1.7065
-0.5395,0.1065,1.7085
-0.5395,0.1055,1.7065
-0.5395,0.1035,1.7075
-0.539,0.1035,1.7065
-0.54,0.1055,1.7055
-0.542,0.1085,1.7065
-0.541,0.108,1.7065
-0.5395,0.1065,1.7065
-0.5435,0.105,1.706
-0.5455,0.104,1.7055
-0.546,0.105,1.7065
-0.5495,0.1045,1.7045
-0.5495,0.1085,1.7035
-0.5475,0.1085,1.704
-0.543,0.1095,1.7025
-0.5385,0.1105,1.7035
-0.5365,0.108,1.7
-0.54,0.1075,1.6985
-0.541,0.108,1.6985
-0.537,0.109,1.6975
-0.535,0.108,1.697
-0.535,0.1085,1.6965
-0.5365,0.107,1.6975
-0.538,0.1075,1.698
-0.5385,0.1075,1.698
-0.54,0.105,1.6955
-0.539,0.104,1.695
-0.541,0.1025,1.695
-0.5435,0.104,1.696
-0.5445,0.1045,1.695
-0.5475,0.1045,1.6935
-0.549,0.1035,1.6965
-0.5475,0.1045,1.697
-0.544,0.104,1.6955
-0.5435,0.1025,1.693
-0.542,0.105,1.6925
-0.5395,0.1025,1.6935
-0.537,0.0995,1.694
-0.539,0.0995,1.6925
-0.5415,0.1025,1.691
-0.5395,0.104,1.6915
-0.538,0.102,1.6915
-0.539,0.099,1.692
-0.5415,0.099,1.693
-0.542,0.1045,1.694
-0.543,0.1055,1.693
-0.5425,0.1045,1.6905
-0.542,0.102,1.69
-0.547,0.1,1.689
-0.5495,0.1015,1.686
-0.548,0.0995,1.684
-0.5465,0.098,1.6825
-0.55,0.096,1.6815
-0.5515,0.0935,1.681
-0.5485,0.0935,1.679
-0.5455,0.094,1.6805
-0.545,0.094,1.6795
-0.546,0.094,1.678
-0.543,0.095,1.682
-0.543,0.094,1.6815
-0.5475,0.0915,1.678
-0.549,0.091,1.678
-0.547,0.092,1.678
-0.545,0.0935,1.679
-0.5445,0.0945,1.678
-0.5455,0.093,1.6755
-0.5455,0.0925,1.6735
-0.546,0.0925,1.673
-0.5435,0.092,1.673
-0.5425,0.094,1.672
-0.546,0.091,1.6735
-0.5455,0.0895,1.672
-0.544,0.0935,1.6725
-0.548,0.093,1.6745
-0.5515,0.0885,1.6735
-0.549,0.0855,1.6735
-0.5485,0.0885,1.6745
-0.548,0.0915,1.6735
-0.546,0.088,1.671
-0.5435,0.089,1.6715
-0.5415,0.0915,1.6725
-0.539,0.0905,1.676
-0.5415,0.0865,1.674
-0.5425,0.084,1.674
-0.5415,0.086,1.677
-0.545,0.0875,1.673
-0.54,0.0895,1.672
-0.539,0.092,1.671
-0.546,0.091,1.6695
-0.546,0.0925,1.669
-0.5425,0.0915,1.668
-0.542,0.089,1.6675
-0.5445,0.0905,1.669
-0.544,0.0895,1.6715
-0.5415,0.088,1.671
-0.5425,0.0895,1.6695
-0.542,0.091,1.669
-0.5425,0.0885,1.671
-0.542,0.089,1.6695
-0.5405,0.087,1.67
-0.545,0.0855,1.669
-0.5445,0.0875,1.669
-0.5425,0.088,1.671
-0.5445,0.0895,1.6675
-0.5425,0.092,1.6685
-0.542,0.091,1.667
-0.5455,0.0905,1.666
-0.546,0.0935,1.6665
-0.5455,0.0905,1.666
-0.5465,0.088,1.666
-0.5435,0.0885,1.6625
-0.5435,0.086,1.661
-0.5485,0.087,1.66
-0.544,0.089,1.658
-0.5375,0.089,1.6575
-0.5435,0.0885,1.6595
-0.5445,0.0905,1.659
-0.541,0.0935,1.6555
-0.547,0.0885,1.657
-0.5475,0.085,1.659
-0.5465,0.087,1.6575
-0.5495,0.088,1.6565
-0.5495,0.0875,1.6565
-0.549,0.0865,1.658
-0.5505,0.085,1.6565
-0.552,0.0845,1.655
-0.5555,0.0845,1.6555
-0.5525,0.0845,1.657
-0.548,0.0835,1.6585
-0.549,0.082,1.656
-0.548,0.0825,1.654
-0.55,0.0845,1.6565
-0.547,0.0825,1.6565
-0.547,0.081,1.6565
-0.547,0.082,1.6555
-0.55,0.0815,1.6545
-0.553,0.0805,1.6535
-0.543,0.0805,1.6535
-0.541,0.0815,1.6545
-0.5385,0.0835,1.6535
-0.536,0.085,1.656
-0.538,0.087,1.6565
-0.542,0.086,1.6545
-0.5455,0.083,1.654
-0.545,0.0825,1.6545
-0.548,0.082,1.6555
-0.547,0.0835,1.656
-0.5455,0.0825,1.658
-0.5455,0.081,1.655
-0.541,0.086,1.6555
-0.539,0.0865,1.659
-0.537,0.0875,1.6585
-0.537,0.089,1.6585
-0.5435,0.0845,1.655
-0.5455,0.081,1.654
-0.546,0.08,1.656
-0.5435,0.0815,1.6525
-0.542,0.0845,1.651
-0.5415,0.085,1.652
-0.541,0.0815,1.652
-0.542,0.084,1.6535
-0.5385,0.0865,1.6525
-0.5395,0.087,1.651
-0.538,0.0895,1.652
-0.5355,0.0905,1.6535
-0.534,0.0925,1.656
-0.5285,0.096,1.6555
-0.528,0.0985,1.656
-0.5305,0.0935,1.658
-0.5335,0.0905,1.6575
-0.5385,0.0925,1.658
-0.5355,0.092,1.655
-0.53,0.0905,1.653
-0.5285,0.0895,1.6525
-0.5235,0.091,1.652
-0.5235,0.098,1.651
-0.526,0.1,1.6515
-0.5255,0.096,1.6545
-0.5285,0.0925,1.6545
-0.5265,0.0925,1.654
-0.5195,0.099,1.6535
-0.518,0.102,1.6545
-0.515,0.106,1.657
-0.516,0.1075,1.6575
-0.5185,0.1045,1.654
-0.5195,0.1025,1.6525
-0.5235,0.104,1.6505
-0.521,0.1065,1.6495
-0.518,0.1045,1.648
-0.5145,0.1055,1.649
-0.5105,0.1085,1.651
-0.512,0.1095,1.649
-0.514,0.108,1.6485
-0.5145,0.107,1.6465
-0.5085,0.1095,1.6465
-0.502,0.113,1.6475
-0.506,0.113,1.647
-0.5085,0.108,1.6455
-0.506,0.108,1.6465
-0.5075,0.1085,1.6455
-0.509,0.108,1.6445
-0.5025,0.1095,1.6435
-0.499,0.11,1.642
-0.502,0.1115,1.641
-0.5095,0.107,1.636
-0.5175,0.1,1.6325
-0.518,0.0985,1.628
-0.5175,0.098,1.625
-0.5185,0.0965,1.6255
-0.5175,0.098,1.6215
-0.5105,0.102,1.6205
-0.507,0.1075,1.62
-0.5055,0.1095,1.6165
-0.501,0.112,1.612
-0.5,0.117,1.608
-0.4965,0.1155,1.608
-0.492,0.118,1.6085
-0.484,0.124,1.6095
-0.479,0.1255,1.6115
-0.482,0.1275,1.614
-0.484,0.1265,1.6125
-0.484,0.1235,1.6105
-0.4805,0.122,1.6135
-0.481,0.1225,1.613
-0.4835,0.1245,1.6115
-0.4795,0.1255,1.6115
-0.4785,0.1285,1.6135
-0.473,0.13,1.6195
-0.4645,0.1335,1.6225
-0.464,0.137,1.628
-0.4675,0.1385,1.6325
-0.4655,0.1415,1.6305
-0.4585,0.142,1.6275
-0.4565,0.139,1.623
-0.4575,0.139,1.626
-0.459,0.1395,1.6275
-0.463,0.139,1.623
-0.466,0.1395,1.6235
-0.4685,0.137,1.622
-0.4715,0.1355,1.6225
-0.4725,0.133,1.622
-0.4715,0.1305,1.62
-0.4725,0.1295,1.622
-0.479,0.127,1.625
-0.487,0.1265,1.624
-0.4905,0.123,1.627
-0.492,0.1185,1.628
-0.4945,0.122,1.631
-0.496,0.1245,1.638
-0.5035,0.12,1.639
-0.5145,0.1125,1.6405
-0.521,0.111,1.6395
-0.528,0.109,1.637
-0.525,0.107,1.637
-0.5225,0.11,1.637
-0.5235,0.1075,1.6375
-0.521,0.107,1.636
-0.5245,0.1055,1.634
-0.528,0.104,1.634
-0.5255,0.1055,1.633
-0.5295,0.1035,1.6315
-0.536,0.0995,1.631
-0.538,0.096,1.627
-0.5375,0.0985,1.628
-0.5405,0.097,1.628
-0.5415,0.093,1.626
-0.5415,0.0915,1.6295
-0.549,0.088,1.63
-0.555,0.085,1.6265
-0.5545,0.085,1.625
-0.551,0.0905,1.6235
-0.5525,0.0875,1.6235
-0.5595,0.0815,1.6235
-0.56,0.0805,1.6215
-0.5535,0.0805,1.6225
-0.551,0.0825,1.623
-0.553,0.082,1.621
-0.554,0.082,1.62
-0.552,0.084,1.622
-0.5505,0.0865,1.6245
-0.5545,0.0865,1.624
-0.5585,0.0855,1.624
-0.5565,0.0885,1.624
-0.5565,0.0885,1.6245
-0.5615,0.086,1.624
-0.5595,0.0865,1.6215
-0.559,0.0865,1.621
-0.5595,0.0875,1.6215
-0.5625,0.09,1.622
-0.562,0.0885,1.62
-0.558,0.086,1.6215
-0.562,0.089,1.6225
-0.564,0.09,1.621
-0.561,0.0865,1.62
-0.5575,0.0885,1.6185
-0.5545,0.0905,1.622
-0.553,0.093,1.624
-0.5505,0.0935,1.623
-0.5525,0.091,1.6225
-0.555,0.089,1.6225
-0.551,0.0925,1.6195
-0.551,0.0925,1.6215
-0.5575,0.089,1.6235
-0.5585,0.091,1.6235
-0.5595,0.0885,1.6245
-0.565,0.09,1.623
-0.56,0.0945,1.623
-0.551,0.101,1.6265
-0.544,0.1105,1.632
-0.54,0.115,1.637
-0.5465,0.118,1.6465
-0.549,0.1265,1.6535
-0.5445,0.1365,1.659
-0.55,0.139,1.6675
-0.5515,0.145,1.6785
-0.5445,0.1585,1.6915
-0.544,0.1685,1.7045
-0.5385,0.1805,1.7165
-0.521,0.2065,1.729
-0.4935,0.248,1.741
-0.47,0.2855,1.749
-0.446,0.3235,1.76
-0.4145,0.3805,1.774
-0.3875,0.437,1.789
-0.3455,0.5,1.8005
-0.2965,0.5715,1.81
-0.2475,0.6435,1.8225
-0.202,0.7175,1.8305
-0.173,0.7675,1.833
-0.141,0.8155,1.8365
-0.1165,0.8485,1.839
-0.0945,0.8705,1.837
-0.0715,0.9005,1.836
-0.0645,0.918,1.8315
-0.0675,0.9355,1.823
-0.0635,0.9465,1.8145
-0.0565,0.964,1.808
-0.0615,0.983,1.803
-0.061,1.003,1.7935
-0.078,0.998,1.776
-0.0985,0.972,1.758
-0.1095,0.9515,1.7405
-0.137,0.911,1.728
-0.175,0.851,1.7205
-0.253,0.7475,1.708
-0.3325,0.6345,1.688
-0.378,0.544,1.641
-0.418,0.4475,1.5865
-0.4615,0.347,1.5445
-0.5075,0.241,1.5095
-0.544,0.142,1.4795
-0.5775,0.04,1.4445
-0.616,-0.074,1.425
-0.6555,-0.1725,1.418
-0.688,-0.2415,1.409
-0.7045,-0.272,1.4055
-0.7095,-0.2685,1.4095
-0.706,-0.2455,1.4195
-0.6945,-0.215,1.4295
-0.682,-0.198,1.441
-0.6645,-0.1825,1.454
-0.6595,-0.164,1.4675
-0.664,-0.1445,1.479
-0.659,-0.125,1.4935
-0.655,-0.1065,1.5105
-0.655,-0.0895,1.5225
-0.6445,-0.0765,1.531
-0.6305,-0.0575,1.538
-0.6315,-0.044,1.549
-0.6325,-0.0365,1.56
-0.6235,-0.021,1.5665
-0.6085,0.0,1.5745
-0.5955,0.0195,1.583
-0.585,0.038,1.587
-0.575,0.0515,1.591
-0.5735,0.058,1.5955
-0.5655,0.069,1.6015
-0.557,0.081,1.604
-0.558,0.086,1.6055
-0.5535,0.091,1.608
-0.549,0.099,1.609
-0.5485,0.1025,1.6085
-0.549,0.107,1.607
-0.5485,0.108,1.608
-0.5455,0.104,1.608
-0.547,0.102,1.6085
-0.55,0.1065,1.611
-0.5455,0.1115,1.6115
-0.547,0.1105,1.6145
-0.554,0.1065,1.6135
-0.5525,0.1055,1.6115
-0.548,0.1095,1.6145
-0.543,0.111,1.615
-0.5425,0.111,1.613
-0.5405,0.114,1.6125
-0.538,0.116,1.6135
-0.539,0.1165,1.613
-0.536,0.1155,1.611
-0.537,0.1145,1.612
-0.541,0.1175,1.612
-0.5385,0.12,1.6115
-0.536,0.1245,1.6135
-0.5385,0.125,1.617
-0.5385,0.1245,1.6185
-0.5395,0.126,1.6185
-0.5435,0.1275,1.6175
-0.544,0.1275,1.616
-0.541,0.1215,1.6165
-0.5385,0.127,1.6165
-0.539,0.1315,1.6175
-0.537,0.131,1.6215
-0.5405,0.1245,1.622
-0.546,0.119,1.6175
-0.5415,0.122,1.618
-0.538,0.122,1.6215
-0.538,0.123,1.6215
-0.534,0.125,1.6245
-0.5255,0.131,1.623
-0.5265,0.1335,1.621
-0.5315,0.1345,1.6215
-0.5325,0.134,1.6175
-0.538,0.1295,1.6155
-0.5385,0.128,1.612
-0.533,0.1305,1.6115
-0.533,0.1325,1.6155
-0.532,0.1335,1.6185
-0.534,0.1365,1.6185
-0.5375,0.1365,1.617
-0.5355,0.1365,1.6165
-0.532,0.138,1.614
-0.532,0.136,1.615
-0.5365,0.137,1.612
-0.535,0.1405,1.6085
-0.528,0.144,1.6085
-0.525,0.144,1.6065
-0.524,0.143,1.6075
-0.523,0.144,1.6085
-0.524,0.144,1.6075
-0.5215,0.143,1.61
-0.515,0.1475,1.611
-0.5175,0.1495,1.607
-0.5225,0.148,1.609
-0.521,0.1495,1.6115
-0.517,0.151,1.615
-0.5145,0.155,1.6155
-0.514,0.157,1.6115
-0.5155,0.158,1.6115
-0.5155,0.157,1.611
-0.5095,0.1555,1.61
-0.5105,0.1595,1.612
-0.516,0.1615,1.612
-0.521,0.1575,1.6095
-0.522,0.1585,1.61
-0.52,0.158,1.608
-0.518,0.1555,1.61
-0.516,0.1595,1.609
-0.5165,0.16,1.607
-0.516,0.159,1.607
-0.513,0.16,1.605
-0.512,0.162,1.605
-0.5155,0.164,1.6055
-0.517,0.165,1.6065
-0.5165,0.1655,1.6055
-0.515,0.1655,1.604
-0.513,0.168,1.6025
-0.5115,0.1675,1.603
-0.507,0.1695,1.6045
-0.505,0.171,1.6065
-0.501,0.1705,1.608
-0.4965,0.176,1.6065
-0.501,0.178,1.607
-0.502,0.183,1.6075
-0.5,0.1855,1.607
-0.499,0.1825,1.604
-0.4945,0.1825,1.601
-0.4935,0.184,1.602
-0.49,0.1875,1.604
-0.4815,0.1925,1.603
-0.476,0.198,1.6045
-0.482,0.198,1.606
-0.492,0.1965,1.605
-0.491,0.1975,1.606
-0.483,0.199,1.6075
-0.481,0.201,1.608
-0.481,0.203,1.6095
-0.4805,0.207,1.6105
-0.479,0.21,1.6115
-0.4755,0.213,1.614
-0.474,0.213,1.613
-0.4755,0.2135,1.612
-0.4775,0.2185,1.6115
-0.4745,0.222,1.608
-0.4735,0.2225,1.607
-0.4735,0.222,1.608
-0.4655,0.226,1.6105
-0.464,0.231,1.6135
-0.466,0.23,1.6125
-0.4625,0.232,1.612
-0.454,0.2375,1.6115
-0.4495,0.2425,1.6125
-0.451,0.2435,1.612
-0.4465,0.246,1.614
-0.446,0.2505,1.617
-0.447,0.2545,1.617
-0.4445,0.256,1.6165
-0.4415,0.2585,1.616
-0.4405,0.264,1.6175
-0.4385,0.265,1.617
-0.436,0.2635,1.6155
-0.4385,0.2655,1.617
-0.4375,0.27,1.619
-0.4345,0.274,1.6175
-0.434,0.274,1.6155
-0.4305,0.278,1.6175
-0.429,0.2815,1.62
-0.4215,0.289,1.6205
-0.413,0.2955,1.621
-0.418,0.292,1.6175
-0.418,0.296,1.616
-0.4115,0.305,1.6195
-0.4025,0.3095,1.619
-0.3985,0.3115,1.619
-0.398,0.316,1.621
-0.3945,0.3215,1.624
-0.3905,0.326,1.6265
-0.3895,0.333,1.6265
-0.391,0.336,1.627
-0.385,0.34,1.6305
-0.376,0.346,1.632
-0.369,0.352,1.6315
-0.3735,0.3565,1.6305
-0.375,0.36,1.6305
-0.3675,0.3655,1.634
-0.3615,0.371,1.637
-0.3585,0.376,1.6385
-0.3545,0.38,1.638
-0.3455,0.3865,1.641
-0.3435,0.3925,1.6425
-0.341,0.3965,1.64
-0.339,0.4035,1.64
-0.3345,0.4105,1.6425
-0.3275,0.4145,1.6465
-0.327,0.416,1.645
-0.326,0.4195,1.646
-0.321,0.4235,1.648
-0.318,0.43,1.648
-0.3135,0.438,1.65
-0.309,0.4405,1.65
-0.3125,0.443,1.6465
-0.31,0.4495,1.6495
-0.3015,0.454,1.6545
-0.2995,0.4565,1.6545
-0.299,0.4555,1.655
-0.3,0.457,1.6545
-0.2955,0.4605,1.6555
-0.293,0.465,1.657
-0.289,0.4705,1.6555
-0.2815,0.4755,1.6535
-0.283,0.479,1.655
-0.2835,0.481,1.6575
-0.2805,0.483,1.6585
-0.279,0.486,1.6565
-0.28,0.49,1.659
-0.282,0.4945,1.6635
-0.2795,0.4975,1.661
-0.279,0.496,1.662
-0.279,0.495,1.661
-0.2785,0.4925,1.6615
-0.28,0.4965,1.662
-0.2805,0.4995,1.658
-0.275,0.5005,1.658
-0.2715,0.5085,1.6585
-0.2725,0.511,1.661
-0.271,0.509,1.6625
-0.2615,0.5095,1.6625
-0.2595,0.511,1.6625
-0.262,0.51,1.664
-0.263,0.512,1.6655
-0.27,0.5115,1.6635
-0.268,0.5115,1.6665
-0.2605,0.512,1.667
-0.263,0.5065,1.665
-0.2615,0.5065,1.668
-0.2575,0.509,1.6695
-0.2595,0.508,1.67
-0.2645,0.5055,1.667
-0.2655,0.5005,1.6625
-0.2685,0.4955,1.664
-0.285,0.488,1.6635
-0.2935,0.483,1.659
-0.2945,0.479,1.6555
-0.2955,0.4715,1.6555
-0.2955,0.4655,1.656
-0.3015,0.459,1.6555
-0.305,0.4515,1.6565
-0.3055,0.446,1.655
-0.3065,0.443,1.654
-0.31,0.437,1.6535
-0.321,0.429,1.65
-0.332,0.4235,1.6515
-0.3395,0.417,1.651
-0.345,0.4085,1.6475
-0.352,0.3995,1.6475
-0.3535,0.3945,1.648
-0.354,0.387,1.646
-0.361,0.379,1.6435
-0.365,0.374,1.644
-0.3705,0.3645,1.6415
-0.377,0.355,1.639
-0.3835,0.346,1.6385
-0.3895,0.339,1.635
-0.3995,0.3345,1.6355
-0.404,0.3265,1.6345
-0.405,0.319,1.6315
-0.4115,0.3095,1.6305
-0.4125,0.302,1.6275
-0.4115,0.3,1.6285
-0.4095,0.2935,1.628
-0.4165,0.287,1.623
-0.429,0.2785,1.618
-0.4295,0.274,1.6225
-0.4285,0.272,1.624
-0.435,0.265,1.6195
-0.4405,0.257,1.6195
-0.4525,0.2435,1.6165
-0.459,0.239,1.6145
-0.461,0.235,1.6135
-0.4665,0.2255,1.612
-0.468,0.224,1.6075
-0.4685,0.2245,1.606
-0.4685,0.22,1.605
-0.4755,0.213,1.601
-0.4835,0.211,1.599
-0.4785,0.2085,1.5955
-0.475,0.203,1.5965
-0.4775,0.201,1.5965
-0.4785,0.201,1.5935
-0.481,0.197,1.594
-0.4825,0.1915,1.5925
-0.4875,0.189,1.591
-0.492,0.188,1.5905
-0.5005,0.184,1.587
-0.5075,0.18,1.5855
-0.5065,0.178,1.586
-0.505,0.1745,1.583
-0.5045,0.174,1.584
-0.5045,0.173,1.586
-0.5045,0.172,1.5825
-0.507,0.1685,1.583
-0.5095,0.162,1.5825
-0.5085,0.1615,1.5835
-0.509,0.1605,1.581
-0.512,0.1585,1.5765
-0.5175,0.154,1.575
-0.521,0.149,1.575
-0.515,0.1475,1.5755
-0.5095,0.1505,1.576
-0.508,0.156,1.576
-0.509,0.154,1.573
-0.5095,0.146,1.569
-0.5105,0.1445,1.569
-0.5145,0.1485,1.5725
-0.518,0.1465,1.571
-0.523,0.1455,1.568
-0.522,0.1455,1.5665
-0.5185,0.1455,1.571
-0.5235,0.144,1.572
-0.528,0.1445,1.5715
-0.531,0.146,1.57
-0.53,0.1455,1.567
-0.525,0.149,1.5685
-0.5225,0.151,1.5675
-0.5245,0.15,1.568
-0.526,0.1415,1.5645
-0.5255,0.1395,1.563
-0.519,0.1465,1.566
-0.511,0.1475,1.564
-0.5145,0.1475,1.5635
-0.5225,0.147,1.562
-0.526,0.149,1.5575
-0.5245,0.1495,1.5575
-0.527,0.1455,1.5575
-0.53,0.141,1.5595
-0.523,0.1395,1.56
-0.5235,0.141,1.5625
-0.5225,0.1435,1.5635
-0.518,0.1445,1.562
-0.523,0.143,1.564
-0.5245,0.139,1.563
-0.5255,0.138,1.5635
-0.529,0.1435,1.563
-0.527,0.1425,1.561
-0.526,0.137,1.559
-0.5285,0.1365,1.5585
-0.531,0.1365,1.56
-0.5325,0.1375,1.5575
-0.5305,0.139,1.553
-0.5325,0.139,1.555
-0.536,0.138,1.555
-0.534,0.138,1.555
-0.5335,0.138,1.557
-0.527,0.137,1.557
-0.5275,0.139,1.5545
-0.5345,0.139,1.552
-0.531,0.138,1.551
-0.5285,0.137,1.548
-0.5305,0.1375,1.551
-0.53,0.1385,1.5525
-0.526,0.1395,1.5555
-0.5305,0.1385,1.556
-0.535,0.138,1.5565
-0.5295,0.1425,1.5615
-0.526,0.1395,1.5585
-0.527,0.14,1.5555
-0.5365,0.141,1.556
-0.5355,0.1375,1.5565
-0.5285,0.139,1.555
-0.5315,0.139,1.552
-0.533,0.138,1.553
-0.5305,0.14,1.551
-0.5295,0.1425,1.5475
-0.537,0.1395,1.547
-0.5415,0.139,1.547
-0.536,0.142,1.5465
-0.5375,0.14,1.5455
-0.536,0.14,1.5455
-0.533,0.142,1.5475
-0.5325,0.1415,1.55
-0.536,0.142,1.549
-0.5335,0.146,1.5475
-0.529,0.1455,1.547
-0.534,0.1415,1.5455
-0.5355,0.138,1.5475
-0.534,0.1365,1.5485
-0.535,0.1385,1.549
-0.535,0.139,1.551
-0.531,0.143,1.551
-0.5285,0.1475,1.5495
-0.53,0.148,1.5485
-0.532,0.144,1.546
-0.532,0.142,1.5475
-0.529,0.1445,1.548
-0.5275,0.1485,1.5435
-0.526,0.151,1.5465
-0.5295,0.151,1.5475
-0.5315,0.154,1.547
-0.531,0.156,1.5475
-0.532,0.151,1.549
-0.53,0.15,1.5485
-0.531,0.1495,1.547
-0.5325,0.152,1.547
-0.535,0.155,1.546
-0.5285,0.154,1.545
-0.5185,0.159,1.543
-0.525,0.155,1.5435
-0.535,0.1515,1.542
-0.531,0.1555,1.5405
-0.522,0.1595,1.539
-0.5265,0.162,1.5395
-0.5315,0.1595,1.5415
-0.529,0.1555,1.538
-0.5245,0.1575,1.538
-0.5255,0.161,1.54
-0.5315,0.1605,1.5415
-0.5325,0.154,1.539
-0.527,0.151,1.542
-0.5275,0.154,1.5445
-0.5315,0.153,1.5405
-0.528,0.153,1.5395
-0.5285,0.1555,1.536
-0.5265,0.1595,1.5355
-0.5235,0.1645,1.534
-0.5195,0.16,1.533
-0.511,0.1595,1.5345
-0.5135,0.1655,1.535
-0.5245,0.162,1.534
-0.526,0.161,1.532
-0.526,0.162,1.5315
-0.524,0.158,1.5305
-0.5215,0.159,1.528
-0.5285,0.1605,1.527
-0.536,0.1585,1.5295
-0.537,0.158,1.532
-0.534,0.1585,1.532
-0.529,0.159,1.5325
-0.5275,0.161,1.532
-0.5265,0.1645,1.5275
-0.528,0.164,1.5275
-0.532,0.1655,1.5275
-0.5285,0.163,1.5275
-0.5265,0.1595,1.5295
-0.519,0.1615,1.5265
-0.514,0.161,1.529
-0.5235,0.1615,1.533
-0.5225,0.1585,1.5295
-0.518,0.158,1.5285
-0.52,0.1655,1.529
-0.52,0.167,1.5255
-0.5185,0.1625,1.525
-0.518,0.1585,1.526
-0.5145,0.1595,1.525
-0.511,0.167,1.528
-0.516,0.167,1.531
-0.5185,0.159,1.529
-0.52,0.1555,1.5305
-0.5255,0.152,1.531
-0.5235,0.1545,1.5305
-0.526,0.154,1.525
-0.5325,0.15,1.525
-0.529,0.154,1.533
-0.5275,0.155,1.531
-0.524,0.156,1.53
-0.5205,0.157,1.529
-0.5155,0.156,1.528
-0.509,0.1605,1.5315
-0.513,0.161,1.5295
-0.5145,0.1615,1.5275
-0.5115,0.1625,1.526
-0.518,0.1595,1.5235
-0.527,0.161,1.5235
-0.5235,0.164,1.526
-0.5165,0.1655,1.528
-0.5145,0.164,1.528
-0.517,0.16,1.526
-0.514,0.1585,1.528
-0.512,0.1605,1.5325
-0.516,0.159,1.53
-0.524,0.1555,1.5305
-0.5295,0.1535,1.5295
-0.521,0.1575,1.525
-0.511,0.1605,1.524
-0.517,0.1575,1.522
-0.5215,0.156,1.5205
-0.5195,0.1565,1.5195
-0.523,0.1575,1.5195
-0.521,0.158,1.519
-0.511,0.1605,1.5195
-0.509,0.159,1.517
-0.516,0.157,1.5175
-0.5125,0.1625,1.5205
-0.5105,0.163,1.5195
-0.5215,0.1575,1.5165
-0.5235,0.1545,1.516
-0.5245,0.1545,1.5165
-0.5235,0.1575,1.514
-0.523,0.1575,1.516
-0.5285,0.1535,1.5165
-0.525,0.151,1.514
-0.521,0.153,1.5145
-0.522,0.1555,1.514
-0.5215,0.155,1.5135
-0.523,0.1525,1.5155
-0.5225,0.1505,1.514
-0.522,0.1535,1.512
-0.5225,0.1565,1.512
-0.5205,0.1555,1.5135
-0.5195,0.1555,1.5145
-0.5165,0.154,1.512
-0.519,0.154,1.5135
-0.525,0.155,1.514
-0.524,0.1545,1.513
-0.5275,0.1545,1.5135
-0.533,0.153,1.514
-0.535,0.1515,1.5125
-0.536,0.148,1.5095
-0.532,0.15,1.512
-0.5245,0.152,1.5125
-0.5255,0.151,1.511
-0.527,0.1505,1.5125
-0.528,0.1535,1.512
-0.53,0.1545,1.512
-0.5285,0.1525,1.5105
-0.529,0.151,1.5085
-0.5275,0.1455,1.5075
-0.526,0.1445,1.5065
-0.5255,0.147,1.508
-0.5265,0.1475,1.5065
-0.5295,0.1465,1.5065
-0.5235,0.1485,1.509
-0.522,0.149,1.5095
-0.5255,0.1465,1.5095
-0.524,0.1495,1.509
-0.523,0.151,1.509
-0.527,0.147,1.5095
-0.5265,0.1435,1.5115
-0.5155,0.1505,1.5115
-0.5175,0.1535,1.5145
-0.5255,0.151,1.515
-0.5255,0.15,1.5135
-0.525,0.149,1.5135
-0.522,0.153,1.512
-0.5235,0.152,1.5105
-0.526,0.1495,1.5075
-0.5235,0.15,1.508
-0.5215,0.147,1.5075
-0.525,0.147,1.5075
-0.524,0.1465,1.509
-0.5185,0.147,1.5095
-0.515,0.1485,1.5095
-0.5155,0.15,1.5075
-0.517,0.1545,1.505
-0.5145,0.1535,1.504
-0.515,0.1535,1.505
-0.5205,0.1495,1.503
-0.529,0.1445,1.5025
-0.5355,0.145,1.5055
-0.5385,0.1415,1.5055
-0.536,0.142,1.5055
-0.5335,0.1445,1.5035
-0.532,0.143,1.5035
-0.5215,0.1465,1.506
-0.5195,0.1505,1.5065
-0.5295,0.146,1.501
-0.5265,0.1475,1.499
-0.512,0.1545,1.5045
-0.5095,0.1555,1.502
-0.519,0.154,1.5005
-0.5235,0.151,1.5025
-0.5185,0.152,1.501
-0.517,0.1555,1.501
-0.521,0.152,1.4995
-0.5225,0.1495,1.4985
-0.519,0.1555,1.5045
-0.5145,0.1605,1.508
-0.516,0.1565,1.506
-0.5155,0.157,1.5065
-0.5115,0.161,1.507
-0.506,0.1595,1.5065
-0.503,0.161,1.5065
-0.51,0.156,1.507
-0.515,0.152,1.507
-0.5175,0.1515,1.5055
-0.518,0.151,1.504
-0.5185,0.154,1.5055
-0.518,0.1585,1.5085
-0.5165,0.1575,1.5085
-0.516,0.1555,1.507
-0.5095,0.1625,1.508
-0.51,0.16,1.509
-0.511,0.1565,1.508
-0.5035,0.16,1.5095
-0.5005,0.162,1.5105
-0.5045,0.1665,1.513
-0.5045,0.17,1.5145
-0.504,0.1685,1.513
-0.5045,0.1615,1.515
-0.504,0.1595,1.516
-0.5045,0.1605,1.5135
-0.501,0.162,1.5095
-0.5,0.166,1.5075
-0.501,0.167,1.507
-0.498,0.171,1.5055
-0.4975,0.171,1.5055
-0.498,0.1675,1.5065
-0.4965,0.169,1.507
-0.495,0.168,1.5095
-0.4945,0.1685,1.5115
-0.4965,0.17,1.5095
-0.4955,0.17,1.507
-0.49,0.172,1.51
-0.492,0.1725,1.51
-0.494,0.1705,1.5095
-0.497,0.1695,1.5045
-0.4975,0.1685,1.5015
-0.501,0.1655,1.498
-0.5105,0.162,1.493
-0.5075,0.16,1.495
-0.5045,0.1615,1.4945
-0.5055,0.1605,1.491
-0.499,0.1625,1.4885
-0.491,0.1665,1.4835
-0.4915,0.1655,1.4765
-0.487,0.168,1.473
-0.481,0.1745,1.472
-0.481,0.1755,1.4735
-0.481,0.1745,1.474
-0.4795,0.1775,1.473
-0.479,0.181,1.4725
-0.48,0.1815,1.4715
-0.477,0.182,1.4715
-0.4755,0.1815,1.472
-0.476,0.1825,1.4735
-0.4805,0.181,1.4745
-0.48,0.177,1.476
-0.4765,0.178,1.4775
-0.4775,0.183,1.4785
-0.4705,0.1895,1.483
-0.4625,0.192,1.486
-0.461,0.1955,1.4875
-0.46,0.1975,1.4925
-0.454,0.2,1.4955
-0.448,0.204,1.4935
-0.446,0.2045,1.492
-0.4495,0.206,1.4905
-0.4535,0.2065,1.492
-0.451,0.205,1.4945
-0.449,0.206,1.4935
-0.45,0.205,1.4915
-0.4465,0.205,1.491
-0.4425,0.206,1.4905
-0.4435,0.2045,1.4905
-0.454,0.207,1.4955
-0.4635,0.202,1.498
-0.4675,0.1925,1.495
-0.4735,0.1915,1.496
-0.478,0.1935,1.498
-0.4805,0.196,1.4995
-0.477,0.196,1.5025
-0.4975,0.194,1.5045
-0.5065,0.1925,1.5055
-0.496,0.1895,1.5065
-0.4985,0.1875,1.506
-0.495,0.1885,1.506
-0.492,0.1865,1.51
-0.496,0.185,1.5125
-0.503,0.1835,1.5125
-0.497,0.181,1.5115
-0.493,0.185,1.508
-0.502,0.1825,1.505
-0.5075,0.178,1.5035
-0.509,0.1755,1.4985
-0.5095,0.1675,1.4945
-0.51,0.1645,1.4945
-0.5145,0.1585,1.494
-0.5145,0.158,1.494
-0.517,0.16,1.497
-0.5255,0.158,1.497
-0.528,0.156,1.4945
-0.5335,0.15,1.494
-0.538,0.149,1.4925
-0.5395,0.15,1.4885
-0.535,0.1495,1.487
-0.531,0.15,1.487
-0.5325,0.149,1.487
-0.5325,0.149,1.4885
-0.533,0.1525,1.4895
-0.531,0.155,1.486
-0.532,0.157,1.485
-0.531,0.159,1.4865
-0.531,0.157,1.487
-0.5315,0.1545,1.489
-0.53,0.154,1.4905
-0.537,0.153,1.491
-0.544,0.1545,1.492
-0.542,0.158,1.495
-0.543,0.1575,1.497
-0.5435,0.154,1.4945
-0.5405,0.154,1.4945
-0.537,0.158,1.496
-0.537,0.157,1.493
-0.5435,0.1555,1.492
-0.5405,0.159,1.495
-0.5365,0.162,1.496
-0.5285,0.162,1.494
-0.5305,0.1605,1.4935
-0.5365,0.159,1.4905
-0.5295,0.1595,1.489
-0.531,0.157,1.4895
-0.53,0.1585,1.489
-0.527,0.163,1.4905
-0.5345,0.16,1.4895
-0.5445,0.156,1.49
-0.5435,0.1555,1.49
-0.537,0.1615,1.488
-0.5355,0.1625,1.487
-0.5335,0.1645,1.491
-0.535,0.1695,1.489
-0.53,0.174,1.488
-0.524,0.186,1.494
-0.5255,0.194,1.4975
-0.523,0.1985,1.5035
-0.524,0.2015,1.5115
-0.521,0.2085,1.5175
-0.521,0.2165,1.5265
-0.521,0.2195,1.541
-0.52,0.2265,1.5555
-0.524,0.23,1.5685
-0.5255,0.2365,1.5825
-0.5155,0.259,1.6
-0.4875,0.2955,1.6115
-0.4625,0.3355,1.6265
-0.441,0.375,1.6435
-0.4155,0.429,1.6595
-0.3925,0.4845,1.6745
-0.354,0.543,1.6805
-0.308,0.618,1.6975
-0.271,0.686,1.7125
-0.225,0.754,1.718
-0.1885,0.81,1.7205
-0.154,0.8625,1.725
-0.121,0.907,1.73
-0.096,0.9445,1.7285
-0.066,0.9815,1.727
-0.0605,0.9925,1.7235
-0.064,1.005,1.7175
-0.0655,1.016,1.7055
-0.075,1.024,1.6965
-0.0835,1.0345,1.6925
-0.0825,1.0595,1.683
-0.0885,1.05,1.6695
-0.1085,1.0095,1.6555
-0.128,0.9905,1.6385
-0.162,0.94,1.6225
-0.211,0.86,1.6145
-0.28,0.755,1.605
-0.349,0.636,1.5915
-0.388,0.547,1.5515
-0.4195,0.4615,1.4845
-0.4545,0.3685,1.4345
-0.488,0.2735,1.401
-0.52,0.1755,1.368
-0.549,0.0785,1.3365
-0.588,-0.027,1.313
-0.6235,-0.1115,1.3055
-0.647,-0.1645,1.2995
-0.6675,-0.1935,1.2945
-0.6755,-0.189,1.299
-0.6625,-0.1665,1.307
-0.6495,-0.1425,1.318
-0.6425,-0.1135,1.329
-0.6405,-0.1005,1.3425
-0.6415,-0.0915,1.3575
-0.633,-0.067,1.37
-0.632,-0.0515,1.3815
-0.628,-0.038,1.3915
-0.6255,-0.025,1.398
-0.6225,-0.012,1.4065
-0.612,0.007,1.4135
-0.612,0.0195,1.4185
-0.6135,0.0255,1.43
-0.6,0.038,1.4365
-0.5855,0.0605,1.4415
-0.581,0.077,1.4465
-0.5725,0.088,1.45
-0.5605,0.1,1.455
-0.554,0.112,1.4585
-0.55,0.1255,1.462
-0.543,0.134,1.465
-0.533,0.144,1.4715
-0.5255,0.1555,1.475
-0.527,0.161,1.4765
-0.5265,0.1645,1.4765
-0.5245,0.1665,1.4755
-0.5255,0.171,1.4765
-0.5245,0.1765,1.479
-0.5265,0.175,1.481
-0.521,0.175,1.48
-0.5165,0.1795,1.482
-0.524,0.181,1.4815
-0.5205,0.1825,1.484
-0.5195,0.182,1.485
-0.527,0.177,1.4815
-0.5205,0.1775,1.4825
-0.519,0.1825,1.4845
-0.522,0.181,1.486
-0.518,0.1815,1.48
-0.5185,0.1825,1.4805
-0.5165,0.184,1.4895
-0.5145,0.186,1.4925
-0.5105,0.1855,1.494
-0.5055,0.189,1.4915
-0.506,0.191,1.4895
-0.513,0.191,1.49
-0.517,0.192,1.491
-0.5135,0.191,1.49
-0.519,0.1895,1.4905
-0.5205,0.1895,1.495
-0.518,0.187,1.4945
-0.525,0.1885,1.4935
-0.5265,0.1915,1.4945
-0.523,0.1955,1.4925
-0.515,0.201,1.489
-0.507,0.2015,1.484
-0.5095,0.2005,1.4835
-0.511,0.197,1.487
-0.5045,0.1975,1.488
-0.5035,0.1975,1.486
-0.503,0.196,1.4865
-0.496,0.1965,1.49
-0.499,0.1995,1.49
-0.501,0.202,1.49
-0.497,0.2055,1.491
-0.4995,0.208,1.494
-0.5055,0.203,1.4915
-0.5125,0.201,1.4915
-0.509,0.208,1.4935
-0.504,0.211,1.493
-0.5025,0.209,1.4925
-0.505,0.208,1.4905
-0.506,0.2065,1.4915
-0.5005,0.209,1.4905
-0.5,0.2085,1.4885
-0.4945,0.2115,1.4875
-0.4955,0.213,1.486
-0.4955,0.212,1.4845
-0.493,0.2135,1.485
-0.4995,0.212,1.488
-0.4975,0.2145,1.4865
-0.4995,0.212,1.483
-0.505,0.209,1.4825
-0.495,0.215,1.486
-0.4895,0.221,1.488
-0.4955,0.217,1.486
-0.4945,0.2185,1.489
-0.4935,0.2275,1.4915
-0.488,0.23,1.49
-0.484,0.229,1.49
-0.4975,0.2295,1.491
-0.4995,0.229,1.491
-0.4975,0.2225,1.4945
-0.4995,0.227,1.495
-0.49,0.235,1.4905
-0.4895,0.2325,1.49
-0.486,0.2355,1.4925
-0.4825,0.236,1.4935
-0.4835,0.2355,1.4925
-0.48,0.238,1.492
-0.479,0.2385,1.494
-0.4765,0.242,1.493
-0.4835,0.239,1.491
-0.488,0.2365,1.4915
-0.483,0.241,1.4925
-0.4875,0.242,1.4945
-0.486,0.244,1.493
-0.4855,0.243,1.4895
-0.487,0.239,1.49
-0.484,0.241,1.492
-0.4885,0.243,1.49
-0.484,0.246,1.488
-0.4785,0.2475,1.4875
-0.4765,0.249,1.4895
-0.4705,0.255,1.4885
-0.4665,0.2585,1.474
-0.469,0.257,1.4845
-0.471,0.2575,1.5005
-0.47,0.259,1.491
-0.4745,0.257,1.488
-0.473,0.2575,1.4885
-0.473,0.258,1.487
-0.473,0.258,1.489
-0.4655,0.2595,1.4885
-0.466,0.261,1.4885
-0.4635,0.265,1.492
-0.455,0.271,1.4935
-0.4575,0.2725,1.494
-0.463,0.273,1.4945
-0.4565,0.282,1.4935
-0.4555,0.281,1.4935
-0.4625,0.272,1.4955
-0.462,0.275,1.4935
-0.4645,0.28,1.4915
-0.4625,0.2795,1.4915
-0.4575,0.282,1.489
-0.4545,0.2865,1.4905
-0.4515,0.2935,1.4905
-0.449,0.2985,1.489
-0.4525,0.2965,1.4885
-0.4535,0.2975,1.4865
-0.4385,0.305,1.4895
-0.434,0.3105,1.4885
-0.435,0.311,1.489
-0.438,0.3085,1.4895
-0.4425,0.315,1.4915
-0.4365,0.319,1.4945
-0.436,0.3185,1.4965
-0.4305,0.3215,1.498
-0.4315,0.327,1.4935
-0.43,0.338,1.494
-0.426,0.336,1.4935
-0.428,0.336,1.4915
-0.422,0.3415,1.493
-0.421,0.3385,1.4925
-0.4155,0.3435,1.496
-0.407,0.35,1.499
-0.4065,0.353,1.4995
-0.4085,0.3595,1.5
-0.4045,0.361,1.5015
-0.395,0.3625,1.5015
-0.391,0.3705,1.502
-0.39,0.3755,1.5035
-0.385,0.3775,1.503
-0.38,0.384,1.507
-0.3745,0.391,1.5105
-0.375,0.395,1.51
-0.379,0.397,1.5095
-0.3755,0.399,1.5095
-0.3695,0.4085,1.5095
-0.3645,0.416,1.5095
-0.361,0.4205,1.5105
-0.3555,0.425,1.514
-0.353,0.4315,1.516
-0.3545,0.439,1.514
-0.349,0.442,1.5135
-0.339,0.4505,1.515
-0.34,0.4535,1.5185
-0.3405,0.454,1.5215
-0.33,0.4625,1.5175
-0.3255,0.4665,1.5165
-0.3275,0.4735,1.52
-0.325,0.4795,1.519
-0.3165,0.4805,1.52
-0.319,0.487,1.524
-0.3165,0.495,1.527
-0.3115,0.4995,1.528
-0.3165,0.503,1.5295
-0.312,0.5085,1.5285
-0.31,0.5115,1.53
-0.307,0.5095,1.53
-0.297,0.5135,1.53
-0.295,0.5205,1.531
-0.2905,0.529,1.5305
-0.282,0.5385,1.531
-0.2765,0.54,1.53
-0.2795,0.54,1.534
-0.2825,0.544,1.5365
-0.281,0.545,1.5375
-0.275,0.5445,1.538
-0.269,0.552,1.5365
-0.272,0.5555,1.5365
-0.273,0.556,1.536
-0.272,0.558,1.5335
-0.2695,0.5595,1.536
-0.267,0.5635,1.539
-0.264,0.566,1.5405
-0.2625,0.569,1.543
-0.2595,0.5715,1.543
-0.258,0.572,1.542
-0.265,0.5715,1.541
-0.2645,0.572,1.545
-0.2595,0.577,1.546
-0.258,0.578,1.547
-0.2555,0.5745,1.547
-0.256,0.5725,1.5455
-0.263,0.571,1.5495
-0.262,0.572,1.5495
-0.255,0.576,1.5495
-0.25,0.5795,1.5485
-0.252,0.5775,1.547
-0.2575,0.5745,1.5485
-0.2565,0.576,1.546
-0.255,0.577,1.5465
-0.2495,0.5745,1.5485
-0.251,0.5765,1.55
-0.252,0.5795,1.5505
-0.254,0.575,1.5515
-0.2625,0.569,1.5545
-0.264,0.561,1.5555
-0.2715,0.5575,1.5555
-0.2745,0.555,1.552
-0.2735,0.548,1.5475
-0.276,0.542,1.547
-0.2775,0.5355,1.5485
-0.2795,0.529,1.547
-0.2825,0.5225,1.5475
-0.2885,0.515,1.5485
-0.2905,0.5135,1.544
-0.303,0.505,1.5395
-0.3115,0.4955,1.542
-0.3105,0.4915,1.546
-0.3165,0.483,1.544
-0.319,0.4775,1.5395
-0.334,0.4675,1.537
-0.346,0.4555,1.536
-0.35,0.4475,1.5335
-0.3525,0.442,1.5325
-0.3555,0.434,1.533
-0.361,0.425,1.534
-0.361,0.4185,1.536
-0.3635,0.4095,1.5345
-0.3725,0.4005,1.5325
-0.3805,0.392,1.5295
-0.382,0.3885,1.526
-0.39,0.3805,1.525
-0.3965,0.373,1.5255
-0.4,0.3665,1.5205
-0.401,0.3575,1.5185
-0.408,0.3545,1.5195
-0.4215,0.345,1.5145
-0.422,0.336,1.5105
-0.419,0.332,1.5095
-0.4225,0.3215,1.508
-0.4235,0.314,1.506
-0.434,0.306,1.504
-0.447,0.303,1.5025
-0.4375,0.3035,1.501
-0.4415,0.2935,1.502
-0.449,0.285,1.503
-0.448,0.283,1.5005
-0.456,0.2835,1.4995
-0.4625,0.2785,1.4965
-0.4685,0.2685,1.491
-0.468,0.265,1.489
-0.4685,0.261,1.4885
-0.4725,0.2525,1.4875
-0.4725,0.249,1.4865
-0.478,0.245,1.4855
-0.484,0.241,1.484
-0.482,0.24,1.483
-0.4835,0.2405,1.486
-0.486,0.2425,1.486
-0.4875,0.238,1.4845
-0.4805,0.2365,1.482
-0.481,0.2355,1.478
-0.493,0.2295,1.4785
-0.497,0.2305,1.479
-0.4965,0.23,1.477
-0.491,0.2265,1.473
-0.4925,0.2265,1.4745
-0.496,0.2255,1.476
-0.497,0.223,1.4725
-0.499,0.2245,1.471
-0.4985,0.2225,1.471
-0.495,0.2175,1.4705
-0.497,0.214,1.4725
-0.498,0.2135,1.472
-0.4945,0.214,1.4675
-0.496,0.2135,1.4605
-0.4945,0.21,1.455
-0.503,0.204,1.459
-0.506,0.2055,1.4605
-0.505,0.2055,1.4575
-0.5075,0.205,1.458
-0.5075,0.2005,1.4585
-0.511,0.1955,1.4575
-0.5125,0.195,1.4595
-0.511,0.1935,1.4615
-0.5085,0.1975,1.4615
-0.509,0.199,1.4605
-0.52,0.1965,1.4595
-0.5255,0.192,1.4575
-0.517,0.1955,1.4595
-0.5135,0.2005,1.4595
-0.5115,0.199,1.4585
-0.509,0.1965,1.4585
-0.509,0.1935,1.4575
-0.5075,0.1945,1.4595
-0.5075,0.194,1.46
-0.51,0.196,1.461
-0.5115,0.197,1.4595
-0.5115,0.193,1.4555
-0.5155,0.1915,1.4565
-0.5185,0.1935,1.4605
-0.5165,0.1935,1.4595
-0.5235,0.193,1.46
-0.523,0.199,1.4595
-0.519,0.2025,1.4585
-0.525,0.196,1.449
-0.5125,0.194,1.439
-0.504,0.1955,1.4605
-0.508,0.1945,1.4715
-0.5105,0.192,1.463
-0.519,0.191,1.46
-0.522,0.191,1.459
-0.5165,0.1905,1.4605
-0.5115,0.191,1.4625
-0.512,0.189,1.4635
-0.515,0.1885,1.4625
-0.5145,0.191,1.4595
-0.517,0.191,1.4535
-0.5185,0.1915,1.4575
-0.5155,0.192,1.4625
-0.518,0.1925,1.4625
-0.5145,0.1985,1.464
-0.513,0.1995,1.462
-0.5095,0.198,1.4605
-0.505,0.1995,1.461
-0.515,0.199,1.46
-0.52,0.198,1.4595
-0.513,0.2035,1.4625
-0.5115,0.204,1.461
-0.523,0.199,1.4585
-0.52,0.201,1.4615
-0.5165,0.199,1.4615
-0.514,0.2,1.46
-0.5035,0.2045,1.454
-0.5095,0.2015,1.4555
-0.5215,0.2,1.4575
-0.522,0.202,1.453
-0.5175,0.202,1.453
-0.5185,0.201,1.455
-0.5225,0.1985,1.453
-0.5205,0.199,1.451
-0.513,0.203,1.4545
-0.513,0.206,1.453
-0.5155,0.207,1.452
-0.5095,0.2075,1.453
-0.5,0.2095,1.4555
-0.5095,0.2085,1.4575
-0.525,0.2035,1.458
-0.52,0.199,1.4605
-0.5165,0.1975,1.4605
-0.5135,0.199,1.46
-0.508,0.202,1.457
-0.508,0.199,1.456
-0.5115,0.197,1.457
-0.5095,0.2035,1.455
-0.512,0.202,1.455
-0.513,0.1995,1.456
-0.502,0.2025,1.4545
-0.503,0.202,1.4535
-0.5085,0.1965,1.4545
-0.508,0.197,1.4565
-0.508,0.199,1.4565
-0.509,0.2015,1.454
-0.511,0.202,1.4575
-0.513,0.199,1.4575
-0.511,0.2015,1.456
-0.513,0.201,1.457
-0.5125,0.205,1.458
-0.5115,0.2065,1.458
-0.5155,0.2055,1.456
-0.515,0.205,1.453
-0.513,0.2005,1.4515
-0.5105,0.2,1.452
-0.516,0.2,1.452
-0.517,0.2035,1.4505
-0.5115,0.209,1.4515
-0.511,0.207,1.4535
-0.511,0.2045,1.454
-0.508,0.2085,1.4525
-0.508,0.2115,1.4515
-0.5135,0.209,1.4525
-0.5125,0.208,1.451
-0.509,0.208,1.451
-0.508,0.208,1.4535
-0.512,0.209,1.456
-0.519,0.208,1.458
-0.5165,0.211,1.458
-0.51,0.213,1.4575
-0.511,0.214,1.458
-0.5055,0.215,1.4605
-0.5095,0.2095,1.4565
-0.511,0.21,1.452
-0.502,0.2145,1.4565
-0.5095,0.2145,1.4525
-0.5125,0.2095,1.4465
-0.5095,0.208,1.446
-0.504,0.213,1.4415
-0.503,0.2115,1.441
-0.504,0.2115,1.443
-0.4995,0.2135,1.442
-0.499,0.2115,1.443
-0.503,0.2095,1.4445
-0.5115,0.204,1.443
-0.5055,0.2095,1.444
-0.4915,0.217,1.444
-0.5025,0.209,1.4425
-0.509,0.206,1.4455
-0.508,0.21,1.4445
-0.508,0.213,1.4385
-0.5075,0.2145,1.4395
-0.5115,0.2125,1.4415
-0.501,0.216,1.443
-0.4995,0.2195,1.4445
-0.504,0.2145,1.445
-0.4975,0.212,1.4435
-0.494,0.213,1.444
-0.496,0.2125,1.447
-0.5025,0.2115,1.445
-0.5075,0.211,1.445
-0.506,0.2135,1.4455
-0.5035,0.214,1.445
-0.508,0.215,1.4455
-0.513,0.2125,1.445
-0.513,0.2095,1.443
-0.5135,0.212,1.4425
-0.513,0.213,1.444
-0.5055,0.214,1.4415
-0.502,0.2135,1.44
-0.503,0.212,1.441
-0.5055,0.209,1.443
-0.508,0.211,1.442
-0.5095,0.21,1.4395
-0.512,0.2055,1.4405
-0.5065,0.2085,1.4405
-0.5045,0.2095,1.4415
-0.5085,0.2095,1.4415
-0.5055,0.2085,1.4445
-0.5015,0.209,1.4465
-0.501,0.2085,1.444
-0.504,0.2065,1.4435
-0.504,0.2065,1.443
-0.5045,0.2065,1.445
-0.5065,0.2075,1.442
-0.506,0.207,1.4395
-0.5105,0.2065,1.439
-0.5155,0.2075,1.437
-0.518,0.2065,1.4395
-0.512,0.208,1.4395
-0.5035,0.209,1.4385
-0.5075,0.2075,1.4385
-0.5145,0.2065,1.438
-0.511,0.2045,1.439
-0.5075,0.2035,1.4395
-0.5,0.2055,1.439
-0.496,0.2065,1.439
-0.505,0.203,1.4365
-0.5085,0.2025,1.438
-0.5075,0.2045,1.4405
-0.5085,0.201,1.437
-0.5045,0.198,1.4375
-0.503,0.198,1.441
-0.5115,0.197,1.441
-0.5145,0.198,1.438
-0.521,0.196,1.435
-0.519,0.195,1.4345
-0.517,0.1975,1.4345
-0.5265,0.1955,1.431
-0.5235,0.1925,1.434
-0.521,0.191,1.4375
-0.519,0.192,1.435
-0.516,0.191,1.4335
-0.517,0.192,1.433
-0.515,0.194,1.4305
-0.509,0.1965,1.433
-0.5095,0.1965,1.4335
-0.5145,0.1945,1.4315
-0.5145,0.195,1.4325
-0.513,0.195,1.43
-0.5115,0.1945,1.429
-0.514,0.1935,1.432
-0.5135,0.1935,1.4325
-0.5075,0.195,1.4325
-0.5055,0.198,1.43
-0.5075,0.2025,1.4255
-0.5095,0.199,1.4285
-0.508,0.1965,1.4335
-0.5025,0.2005,1.4335
-0.505,0.1985,1.4295
-0.5105,0.196,1.429
-0.5085,0.1955,1.433
-0.5075,0.1935,1.431
-0.5045,0.1935,1.4315
-0.5045,0.1935,1.4335
-0.51,0.1925,1.4325
-0.51,0.1935,1.431
-0.511,0.1935,1.431
-0.512,0.192,1.4355
-0.507,0.1945,1.4375
-0.5055,0.197,1.441
-0.5075,0.196,1.441
-0.5075,0.1995,1.438
-0.505,0.1985,1.4385
-0.5055,0.194,1.4395
-0.51,0.1925,1.4415
-0.5115,0.191,1.4405
-0.5105,0.191,1.44
-0.5135,0.1915,1.4405
-0.5155,0.1905,1.4395
-0.5155,0.19,1.4365
-0.5135,0.1925,1.437
-0.5055,0.194,1.438
-0.5045,0.1925,1.436
-0.5045,0.1925,1.4335
-0.51,0.193,1.4315
-0.513,0.1915,1.4335
-0.507,0.1915,1.4315
-0.5035,0.194,1.4325
-0.5045,0.195,1.4315
-0.5075,0.1945,1.43
-0.5075,0.192,1.429
-0.508,0.1935,1.4285
-0.5095,0.193,1.429
-0.5175,0.1875,1.4255
-0.515,0.19,1.4265
-0.5115,0.19,1.428
-0.5115,0.1905,1.43
-0.509,0.1915,1.43
-0.509,0.1945,1.4305
-0.509,0.1965,1.431
-0.5145,0.1915,1.4305
-0.5155,0.1945,1.4335
-0.516,0.193,1.4335
-0.5165,0.1905,1.432
-0.5145,0.192,1.43
-0.5135,0.193,1.4295
-0.5125,0.1955,1.4295
-0.5115,0.192,1.427
-0.5065,0.191,1.4295
-0.504,0.195,1.4325
-0.5065,0.195,1.4315
-0.51,0.1935,1.4325
-0.5115,0.193,1.4355
-0.5075,0.194,1.4345
-0.5085,0.1935,1.4325
-0.504,0.194,1.4335
-0.498,0.1985,1.436
-0.504,0.1965,1.4355
-0.504,0.197,1.4335
-0.5035,0.1995,1.434
-0.499,0.203,1.4345
-0.499,0.2065,1.435
-0.5045,0.202,1.4345
-0.5015,0.199,1.435
-0.502,0.198,1.435
-0.499,0.1995,1.4335
-0.4975,0.1985,1.435
-0.4975,0.199,1.4405
-0.498,0.203,1.4405
-0.498,0.205,1.441
-0.4855,0.2065,1.4425
-0.4865,0.2025,1.44
-0.493,0.1975,1.4425
-0.4895,0.2,1.442
-0.488,0.205,1.438
-0.487,0.2045,1.435
-0.487,0.2065,1.4365
-0.487,0.205,1.4385
-0.4865,0.202,1.437
-0.487,0.2035,1.438
-0.491,0.2005,1.4395
-0.4945,0.1995,1.441
-0.4905,0.198,1.443
-0.49,0.199,1.4435
-0.4865,0.2025,1.4435
-0.485,0.203,1.4425
-0.4905,0.2005,1.4415
-0.486,0.199,1.4405
-0.484,0.201,1.44
-0.4845,0.1995,1.438
-0.4855,0.1965,1.434
-0.4885,0.196,1.4305
-0.491,0.193,1.426
-0.4915,0.1905,1.4255
-0.492,0.1895,1.424
-0.495,0.1885,1.4185
-0.4945,0.189,1.4135
-0.488,0.1935,1.4115
-0.4815,0.196,1.411
-0.4755,0.201,1.4085
-0.4705,0.2075,1.408
-0.4715,0.2065,1.4055
-0.4665,0.208,1.4055
-0.4585,0.2105,1.4085
-0.4625,0.2105,1.408
-0.4695,0.213,1.407
-0.4695,0.218,1.4055
-0.4675,0.2155,1.406
-0.468,0.215,1.406
-0.4635,0.218,1.407
-0.46,0.219,1.4075
-0.4595,0.2215,1.4105
-0.4575,0.222,1.4155
-0.455,0.2225,1.4165
-0.4515,0.23,1.421
-0.446,0.2405,1.4245
-0.446,0.2395,1.4285
-0.446,0.237,1.4285
-0.443,0.2385,1.4275
-0.441,0.2385,1.4285
-0.4405,0.242,1.427
-0.4415,0.243,1.4265
-0.4435,0.238,1.4245
-0.443,0.235,1.424
-0.4465,0.2315,1.4235
-0.449,0.2295,1.4205
-0.446,0.2285,1.419
-0.447,0.228,1.4195
-0.446,0.2285,1.4195
-0.4485,0.2245,1.4215
-0.4575,0.2205,1.423
-0.465,0.219,1.4255
-0.4695,0.218,1.431
-0.4755,0.217,1.4315
-0.4805,0.2165,1.4335
-0.4885,0.215,1.435
-0.4905,0.215,1.436
-0.4935,0.2105,1.4425
-0.5005,0.2085,1.445
-0.496,0.211,1.4455
-0.4945,0.212,1.446
-0.497,0.2115,1.4475
-0.4975,0.2095,1.448
-0.4965,0.208,1.446
-0.496,0.2075,1.443
-0.498,0.205,1.4395
-0.5035,0.2,1.438
-0.506,0.201,1.4385
-0.5025,0.2015,1.4385
-0.508,0.1975,1.436
-0.5105,0.1925,1.436
-0.5095,0.1875,1.4345
-0.5115,0.188,1.435
-0.516,0.186,1.432
-0.521,0.181,1.428
-0.5215,0.182,1.43
-0.525,0.1805,1.429
-0.525,0.1775,1.43
-0.5245,0.1795,1.4295
-0.5245,0.179,1.43
-0.523,0.1775,1.4305
-0.527,0.1775,1.432
-0.5285,0.175,1.432
-0.529,0.1765,1.4305
-0.5265,0.178,1.432
-0.5245,0.175,1.4295
-0.5255,0.1755,1.4295
-0.5275,0.1755,1.432
-0.5305,0.1745,1.4305
-0.532,0.1715,1.433
-0.5345,0.1695,1.4355
-0.531,0.173,1.4365
-0.528,0.1725,1.436
-0.53,0.169,1.4335
-0.5325,0.1705,1.4325
-0.5285,0.173,1.4325
-0.5245,0.176,1.4345
-0.527,0.176,1.435
-0.526,0.1755,1.4355
-0.5265,0.177,1.436
-0.526,0.1765,1.436
-0.525,0.1765,1.439
-0.5255,0.1765,1.4385
-0.5245,0.1775,1.4375
-0.5215,0.1815,1.439
-0.5225,0.1825,1.4355
-0.5235,0.18,1.434
-0.5185,0.182,1.435
-0.521,0.1855,1.4365
-0.522,0.186,1.439
-0.5215,0.186,1.438
-0.518,0.19,1.438
-0.5155,0.2,1.4365
-0.5155,0.208,1.4385
-0.511,0.214,1.444
-0.5055,0.2205,1.447
-0.5065,0.226,1.452
-0.5135,0.2275,1.4595
-0.5105,0.231,1.467
-0.51,0.2375,1.474
-0.5165,0.2455,1.4845
-0.518,0.2495,1.497
-0.519,0.25,1.5135
-0.5185,0.2555,1.5325
-0.5075,0.274,1.5445
-0.4855,0.3105,1.558
-0.46,0.3525,1.572
-0.438,0.389,1.585
-0.4125,0.435,1.5995
-0.383,0.4895,1.6155
-0.356,0.5435,1.6285
-0.3205,0.6125,1.643
-0.2765,0.687,1.6605
-0.226,0.763,1.6705
-0.1815,0.8235,1.6745
-0.151,0.874,1.6795
-0.128,0.919,1.6865
-0.109,0.943,1.684
-0.0855,0.968,1.6835
-0.076,0.9855,1.686
-0.0735,1.0055,1.681
-0.067,1.022,1.671
-0.0615,1.033,1.663
-0.062,1.0485,1.659
-0.064,1.0685,1.6495
-0.0725,1.079,1.637
-0.102,1.0475,1.6175
-0.12,1.0245,1.6
-0.134,0.99,1.5815
-0.159,0.926,1.5705
-0.222,0.8365,1.5625
-0.304,0.714,1.5545
-0.35,0.611,1.528
-0.381,0.5265,1.459
-0.4175,0.44,1.4015
-0.4575,0.344,1.362
-0.49,0.244,1.3245
-0.5145,0.154,1.2885
-0.5415,0.06,1.2565
-0.5835,-0.035,1.2405
-0.619,-0.104,1.2325
-0.644,-0.15,1.225
-0.6505,-0.165,1.227
-0.6415,-0.1485,1.2375
-0.636,-0.124,1.244
-0.628,-0.103,1.255
-0.62,-0.084,1.272
-0.6145,-0.0675,1.2845
-0.6105,-0.0515,1.294
-0.6095,-0.033,1.308
-0.6165,-0.0185,1.324
-0.6135,-0.0055,1.3385
-0.604,0.0075,1.35
-0.596,0.025,1.3565
-0.5915,0.0405,1.3645
-0.593,0.0485,1.3735
-0.5895,0.056,1.381
-0.5765,0.0705,1.3885
-0.565,0.09,1.397
-0.5565,0.107,1.406
-0.5455,0.124,1.4125
-0.5415,0.1345,1.4135
-0.534,0.147,1.419
-0.5235,0.1575,1.4255
-0.5215,0.1625,1.4285
-0.522,0.171,1.4285
-0.5195,0.1775,1.43
-0.5145,0.1805,1.436
-0.5195,0.183,1.4365
-0.523,0.183,1.4395
-0.518,0.1825,1.44
-0.5185,0.1875,1.439
-0.5175,0.1905,1.4405
-0.5145,0.191,1.4375
-0.516,0.191,1.438
-0.517,0.19,1.4415
-0.517,0.1925,1.4435
-0.514,0.1915,1.442
-0.5125,0.188,1.442
-0.518,0.188,1.4435
-0.5225,0.1905,1.442
-0.5235,0.1915,1.4445
-0.516,0.1915,1.446
-0.5115,0.1945,1.4475
-0.5115,0.1955,1.446
-0.509,0.195,1.4425
-0.511,0.1965,1.443
-0.5115,0.197,1.443
-0.5105,0.1995,1.444
-0.509,0.2015,1.444
-0.5105,0.1995,1.443
-0.5125,0.1965,1.447
-0.5135,0.2005,1.4475
-0.521,0.202,1.446
-0.5235,0.201,1.4475
-0.521,0.2025,1.4465
-0.521,0.2015,1.4455
-0.5185,0.203,1.446
-0.513,0.204,1.447
-0.508,0.208,1.447
-0.5045,0.211,1.448
-0.5015,0.209,1.446
-0.508,0.2065,1.446
-0.513,0.205,1.4475
-0.5095,0.206,1.4465
-0.5075,0.207,1.4485
-0.5085,0.209,1.4455
-0.507,0.2105,1.442
-0.5045,0.2125,1.443
-0.508,0.2085,1.4425
-0.507,0.207,1.442
-0.504,0.211,1.4455
-0.5055,0.2125,1.448
-0.508,0.2135,1.447
-0.51,0.2125,1.4475
-0.5085,0.213,1.4465
-0.5095,0.2135,1.4485
-0.5075,0.214,1.45
-0.505,0.213,1.4495
-0.5045,0.2135,1.449
-0.5055,0.216,1.4475
-0.506,0.2165,1.447
-0.4985,0.218,1.448
-0.4975,0.217,1.4485
-0.496,0.2185,1.446
-0.4915,0.2205,1.447
-0.494,0.2215,1.4485
-0.4935,0.222,1.45
-0.488,0.2265,1.4505
-0.488,0.2305,1.4485
-0.4945,0.223,1.4485
-0.497,0.2205,1.452
-0.4975,0.226,1.454
-0.498,0.2295,1.4515
-0.497,0.2295,1.4505
-0.4975,0.23,1.4525
-0.4985,0.23,1.4545
-0.4965,0.2305,1.453
-0.4915,0.2305,1.454
-0.491,0.229,1.455
-0.4895,0.23,1.452
-0.4875,0.232,1.453
-0.488,0.232,1.451
-0.487,0.2315,1.4515
-0.4915,0.234,1.452
-0.488,0.2345,1.45
-0.4825,0.236,1.4515
-0.484,0.2385,1.452
-0.482,0.241,1.453
-0.4845,0.2435,1.454
-0.482,0.2425,1.453
-0.4765,0.245,1.4545
-0.4795,0.2435,1.4545
-0.486,0.2435,1.4535
-0.488,0.2455,1.453
-0.484,0.2415,1.4535
-0.484,0.2425,1.4555
-0.485,0.244,1.4545
-0.485,0.246,1.4575
-0.481,0.2475,1.458
-0.4745,0.2495,1.4565
-0.474,0.252,1.457
-0.4765,0.253,1.458
-0.4775,0.2535,1.4585
-0.476,0.254,1.459
-0.474,0.256,1.462
-0.471,0.2565,1.461
-0.4655,0.2595,1.46
-0.462,0.2635,1.461
-0.4635,0.2625,1.4595
-0.4675,0.2635,1.46
-0.463,0.2685,1.4635
-0.46,0.2715,1.465
-0.459,0.2715,1.4645
-0.456,0.2735,1.4655
-0.454,0.2765,1.4675
-0.455,0.278,1.468
-0.457,0.283,1.4655
-0.452,0.286,1.464
-0.4505,0.2865,1.4605
-0.4485,0.288,1.4585
-0.4485,0.2905,1.457
-0.4485,0.2935,1.455
-0.438,0.2945,1.456
-0.4345,0.2965,1.457
-0.439,0.3,1.4575
-0.4395,0.3,1.4575
-0.438,0.302,1.456
-0.4355,0.3055,1.4575
-0.4325,0.3075,1.46
-0.4295,0.311,1.4605
-0.43,0.3155,1.462
-0.432,0.3155,1.4625
-0.431,0.313,1.4635
-0.433,0.318,1.4645
-0.4355,0.3215,1.465
-0.429,0.3265,1.4675
-0.422,0.3335,1.469
-0.42,0.3335,1.4695
-0.4225,0.3385,1.472
-0.42,0.3455,1.4745
-0.4135,0.345,1.477
-0.411,0.3475,1.4765
-0.4085,0.352,1.4755
-0.407,0.356,1.479
-0.4015,0.3625,1.4815
-0.393,0.3695,1.4855
-0.3895,0.377,1.4875
-0.384,0.385,1.485
-0.381,0.3915,1.4845
-0.3805,0.3945,1.487
-0.379,0.398,1.4925
-0.3775,0.403,1.491
-0.3725,0.407,1.491
-0.368,0.4135,1.494
-0.366,0.422,1.4945
-0.3655,0.424,1.4955
-0.3625,0.4265,1.492
-0.36,0.43,1.4925
-0.36,0.436,1.496
-0.349,0.4445,1.497
-0.3415,0.4505,1.4965
-0.337,0.4575,1.4965
-0.3335,0.4605,1.498
-0.328,0.4665,1.4995
-0.318,0.4735,1.5025
-0.315,0.479,1.504
-0.313,0.4835,1.506
-0.314,0.487,1.5075
-0.3105,0.492,1.5085
-0.307,0.495,1.508
-0.3065,0.5015,1.5095
-0.307,0.5085,1.513
-0.308,0.5105,1.5145
-0.302,0.5135,1.5165
-0.3,0.519,1.519
-0.2965,0.5235,1.5225
-0.2895,0.526,1.524
-0.2855,0.5305,1.525
-0.287,0.5365,1.525
-0.2845,0.5405,1.526
-0.277,0.543,1.524
-0.2725,0.5485,1.524
-0.2725,0.552,1.525
-0.2755,0.549,1.5275
-0.275,0.5485,1.5315
-0.2695,0.553,1.5315
-0.2635,0.5575,1.532
-0.2595,0.5625,1.5325
-0.258,0.5675,1.532
-0.2615,0.57,1.5335
-0.2635,0.5705,1.537
-0.261,0.572,1.5385
-0.26,0.575,1.538
-0.2585,0.578,1.5425
-0.2575,0.5765,1.5455
-0.258,0.576,1.5445
-0.258,0.578,1.545
-0.255,0.577,1.545
-0.255,0.5795,1.545
-0.2525,0.58,1.546
-0.247,0.5795,1.5445
-0.248,0.5795,1.5455
-0.2485,0.58,1.5475
-0.25,0.5815,1.546
-0.255,0.578,1.548
-0.257,0.575,1.552
-0.2545,0.5755,1.55
-0.2585,0.5745,1.549
-0.262,0.573,1.55
-0.2595,0.571,1.5475
-0.261,0.5645,1.5485
-0.2615,0.5605,1.549
-0.27,0.5575,1.549
-0.277,0.5505,1.5495
-0.279,0.546,1.5495
-0.283,0.542,1.5495
-0.2885,0.5385,1.548
-0.2925,0.5305,1.5485
-0.295,0.523,1.546
-0.2985,0.52,1.544
-0.3,0.513,1.5425
-0.3015,0.5065,1.543
-0.3025,0.5005,1.544
-0.3035,0.4905,1.5425
-0.308,0.4825,1.5425
-0.318,0.4765,1.541
-0.325,0.468,1.5415
-0.329,0.4605,1.542
-0.3335,0.4525,1.5405
-0.337,0.4445,1.5395
-0.3435,0.438,1.5425
-0.351,0.4315,1.5405
-0.353,0.4275,1.536
-0.356,0.42,1.5355
-0.3665,0.407,1.5335
-0.3715,0.399,1.533
-0.376,0.3915,1.532
-0.3855,0.3835,1.532
-0.3905,0.379,1.53
-0.395,0.375,1.527
-0.3975,0.3655,1.525
-0.4,0.3535,1.522
-0.4035,0.3475,1.521
-0.405,0.342,1.5195
-0.4105,0.3345,1.5195
-0.418,0.3275,1.517
-0.4205,0.3245,1.517
-0.424,0.3195,1.516
-0.4255,0.3095,1.5125
-0.4265,0.303,1.5115
-0.436,0.2985,1.5105
-0.4465,0.291,1.5095
-0.4495,0.287,1.506
-0.45,0.2845,1.504
-0.454,0.2755,1.5035
-0.4575,0.2705,1.504
-0.4605,0.267,1.5025
-0.466,0.2595,1.5
-0.4675,0.257,1.501
-0.4685,0.255,1.5015
-0.4695,0.2505,1.4995
-0.468,0.244,1.5
-0.47,0.241,1.4995
-0.4695,0.24,1.497
-0.4715,0.24,1.4965
-0.4775,0.24,1.4935
-0.4795,0.2345,1.492
-0.4775,0.232,1.4915
-0.481,0.23,1.49
-0.484,0.2285,1.4905
-0.487,0.229,1.4915
-0.4895,0.2285,1.4915
-0.4865,0.2255,1.4895
-0.4875,0.2235,1.491
-0.488,0.2215,1.4895
-0.486,0.22,1.4875
-0.4845,0.218,1.4895
-0.484,0.2155,1.489
-0.4865,0.2145,1.489
-0.4875,0.2145,1.489
-0.4845,0.217,1.489
-0.4835,0.216,1.4895
-0.4825,0.2135,1.4895
-0.481,0.213,1.4885
-0.489,0.206,1.4875
-0.493,0.2035,1.4865
-0.4875,0.2055,1.484
-0.487,0.2055,1.4825
-0.489,0.2085,1.4835
-0.492,0.209,1.4835
-0.4935,0.2055,1.4825
-0.493,0.205,1.4835
-0.494,0.2055,1.4835
-0.4935,0.2055,1.4845
-0.492,0.207,1.4855
-0.4965,0.204,1.484
-0.5005,0.201,1.4855
-0.4995,0.202,1.4845
-0.4985,0.205,1.483
-0.4985,0.205,1.4825
-0.4995,0.201,1.4815
-0.5,0.1985,1.482
-0.4975,0.198,1.482
-0.4975,0.199,1.483
-0.499,0.2,1.482
-0.4985,0.1995,1.482
-0.4985,0.2,1.4845
-0.495,0.2035,1.485
-0.4925,0.201,1.484
-0.4935,0.1995,1.4845
-0.4945,0.1995,1.4855
-0.497,0.1985,1.4845
-0.495,0.2,1.484
-0.4915,0.1995,1.485
-0.491,0.1995,1.485
-0.4945,0.1975,1.486
-0.4965,0.1955,1.486
-0.4945,0.1965,1.4875
-0.4945,0.1965,1.488
-0.494,0.195,1.487
-0.491,0.196,1.4855
-0.492,0.195,1.485
-0.494,0.1915,1.487
-0.491,0.1925,1.4875
-0.49,0.195,1.485
-0.4915,0.1955,1.483
-0.49,0.1945,1.484
-0.4905,0.1955,1.484
-0.492,0.1955,1.484
-0.492,0.194,1.4845
-0.4915,0.1935,1.4835
-0.492,0.1945,1.4835
-0.491,0.1975,1.482
-0.4935,0.195,1.484
-0.4985,0.195,1.4875
-0.496,0.195,1.487
-0.4945,0.1935,1.4855
-0.4935,0.1915,1.486
-0.494,0.1925,1.486
-0.494,0.197,1.4845
-0.495,0.1925,1.4825
-0.498,0.1895,1.4825
-0.4995,0.188,1.4845
-0.5035,0.1865,1.481
-0.5045,0.188,1.4815
-0.506,0.1875,1.4845
-0.5045,0.1885,1.4855
-0.4995,0.187,1.485
-0.496,0.187,1.4885
-0.493,0.19,1.492
-0.4955,0.192,1.4905
-0.5005,0.191,1.4875
-0.4985,0.191,1.4845
-0.497,0.193,1.486
-0.4965,0.1935,1.485
-0.4955,0.1945,1.4835
-0.499,0.1965,1.484
-0.501,0.195,1.484
-0.5005,0.196,1.483
-0.4965,0.197,1.4835
-0.494,0.197,1.483
-0.4945,0.197,1.486
-0.4945,0.196,1.4875
-0.4945,0.197,1.487
-0.493,0.2,1.489
-0.4905,0.2005,1.486
-0.492,0.202,1.485
-0.495,0.204,1.4845
-0.4935,0.204,1.4825
-0.4925,0.2035,1.484
-0.4995,0.202,1.4825
-0.496,0.204,1.482
-0.492,0.2075,1.4835
-0.4945,0.206,1.483
-0.4945,0.202,1.483
-0.497,0.2,1.4825
-0.4965,0.2,1.4805
-0.4915,0.2025,1.4835
-0.4895,0.205,1.4835
-0.49,0.2035,1.4825
-0.491,0.2005,1.484
-0.49,0.2035,1.485
-0.488,0.2065,1.486
-0.4905,0.205,1.4845
-0.493,0.2075,1.4855
-0.497,0.207,1.4855
-0.4965,0.2045,1.4845
-0.4935,0.2055,1.486
-0.494,0.205,1.4845
-0.4935,0.2035,1.4835
-0.494,0.203,1.4835
-0.493,0.204,1.4835
-0.4955,0.2025,1.484
-0.4975,0.2035,1.4855
-0.4975,0.2045,1.4855
-0.493,0.2055,1.4875
-0.491,0.2075,1.4885
-0.495,0.205,1.486
-0.4925,0.2045,1.486
-0.4925,0.206,1.4855
-0.492,0.206,1.483
-0.4915,0.2075,1.4815
-0.494,0.2085,1.4835
-0.492,0.2065,1.482
-0.4915,0.205,1.4825
-0.4905,0.2045,1.4825
-0.488,0.2045,1.48
-0.4875,0.205,1.4815
-0.491,0.2045,1.481
-0.4935,0.203,1.48
-0.4935,0.2035,1.4805
-0.4925,0.205,1.4805
-0.493,0.205,1.4785
-0.4935,0.207,1.477
-0.4905,0.205,1.476
-0.492,0.2045,1.473
-0.4945,0.206,1.4725
-0.495,0.2025,1.4745
-0.493,0.203,1.475
-0.4905,0.204,1.4755
-0.491,0.204,1.4765
-0.4925,0.202,1.477
-0.492,0.203,1.4785
-0.4895,0.203,1.476
-0.488,0.2035,1.475
-0.4845,0.208,1.4755
-0.4795,0.209,1.4745
-0.4835,0.2095,1.475
-0.4875,0.209,1.4755
-0.4885,0.2075,1.4765
-0.4915,0.206,1.478
-0.489,0.208,1.4775
-0.489,0.2105,1.475
-0.4915,0.206,1.4755
-0.492,0.2025,1.4735
-0.4905,0.206,1.4725
-0.489,0.2075,1.474
-0.491,0.2065,1.474
-0.491,0.2085,1.4745
-0.489,0.209,1.4745
-0.4845,0.2085,1.4745
-0.485,0.207,1.4735
-0.484,0.2045,1.475
-0.4815,0.2055,1.473
-0.4835,0.2055,1.4715
-0.4835,0.2055,1.4725
-0.4865,0.205,1.4715
-0.4885,0.2065,1.472
-0.4855,0.2045,1.471
-0.488,0.203,1.474
-0.4905,0.204,1.475
-0.4895,0.2035,1.4725
-0.49,0.1975,1.4735
-0.492,0.1955,1.473
-0.494,0.199,1.474
-0.4955,0.1975,1.473
-0.495,0.1965,1.4715
-0.494,0.1965,1.4695
-0.494,0.1945,1.469
-0.497,0.195,1.4695
-0.4955,0.198,1.466
-0.4905,0.197,1.4655
-0.491,0.193,1.467
-0.491,0.191,1.468
-0.4875,0.193,1.468
-0.4865,0.193,1.4685
-0.492,0.192,1.467
-0.4935,0.193,1.4675
-0.4925,0.192,1.4685
-0.491,0.192,1.466
-0.4885,0.192,1.4645
-0.4905,0.1905,1.466
-0.4915,0.1905,1.463
-0.4945,0.189,1.462
-0.4975,0.1865,1.4655
-0.498,0.1885,1.465
-0.497,0.186,1.464
-0.4955,0.182,1.4655
-0.495,0.184,1.4665
-0.49,0.19,1.466
-0.486,0.19,1.464
-0.4915,0.1835,1.4635
-0.4935,0.1815,1.465
-0.4905,0.1845,1.464
-0.4915,0.1855,1.465
-0.4935,0.184,1.4665
-0.491,0.185,1.466
-0.493,0.1835,1.4665
-0.4945,0.1825,1.467
-0.4915,0.185,1.4695
-0.491,0.1855,1.4725
-0.4895,0.1865,1.471
-0.49,0.1865,1.4705
-0.4915,0.1855,1.4675
-0.4905,0.184,1.4675
-0.491,0.1855,1.4695
-0.493,0.184,1.468
-0.4975,0.182,1.4675
-0.501,0.181,1.466
-0.4995,0.1805,1.464
-0.4965,0.1815,1.462
-0.4945,0.1805,1.463
-0.494,0.18,1.4625
-0.4925,0.1815,1.4625
-0.489,0.1825,1.4635
-0.4895,0.183,1.4645
-0.491,0.183,1.466
-0.4905,0.181,1.464
-0.491,0.1815,1.4625
-0.4935,0.1815,1.4615
-0.4965,0.1795,1.463
-0.498,0.181,1.4615
-0.498,0.1795,1.4615
-0.497,0.18,1.4625
-0.497,0.18,1.463
-0.5,0.1805,1.464
-0.502,0.181,1.463
-0.5015,0.1805,1.4645
-0.5,0.1805,1.4645
-0.4965,0.179,1.464
-0.497,0.178,1.4635
-0.4985,0.18,1.4635
-0.498,0.1785,1.4625
-0.4945,0.178,1.461
-0.492,0.1815,1.459
-0.489,0.18,1.4595
-0.488,0.179,1.4615
-0.491,0.181,1.462
-0.489,0.185,1.461
-0.4895,0.183,1.461
-0.4915,0.177,1.4635
-0.4925,0.176,1.463
-0.4945,0.1765,1.464
-0.494,0.177,1.4625
-0.4965,0.178,1.462
-0.4995,0.176,1.463
-0.4945,0.1725,1.461
-0.4965,0.1705,1.462
-0.499,0.1715,1.4615
-0.498,0.1715,1.46
-0.4995,0.1695,1.4615
-0.4965,0.1695,1.464
-0.495,0.1715,1.465
-0.494,0.172,1.462
-0.4945,0.1735,1.459
-0.494,0.1735,1.4585
-0.4945,0.1725,1.457
-0.4975,0.1735,1.4605
-0.496,0.172,1.4605
-0.4945,0.171,1.459
-0.4945,0.1715,1.4605
-0.497,0.1705,1.461
-0.498,0.171,1.4615
-0.4965,0.1725,1.4605
-0.4955,0.1725,1.4625
-0.499,0.172,1.4635
-0.4995,0.172,1.461
-0.493,0.172,1.461
-0.4925,0.173,1.461
-0.4915,0.1735,1.4585
-0.4905,0.172,1.4595
-0.497,0.1695,1.4615
-0.4995,0.168,1.4605
-0.498,0.1685,1.463
-0.4975,0.17,1.4625
-0.494,0.1745,1.4575
-0.4965,0.1765,1.4555
-0.4975,0.17,1.456
-0.496,0.166,1.458
-0.497,0.1695,1.456
-0.4975,0.169,1.4565
-0.502,0.1665,1.454
-0.5025,0.1685,1.4535
-0.501,0.1695,1.455
-0.5005,0.1695,1.4545
-0.5015,0.172,1.4565
-0.5005,0.17,1.456
-0.497,0.1685,1.4555
-0.4995,0.1685,1.4575
-0.5015,0.1685,1.458
-0.4965,0.17,1.4595
-0.4925,0.1715,1.462
-0.4905,0.1725,1.464
-0.4935,0.171,1.4625
-0.496,0.17,1.46
-0.4905,0.1735,1.459
-0.491,0.1765,1.4595
-0.495,0.1765,1.4625
-0.4905,0.1755,1.4615
-0.489,0.1745,1.4615
-0.489,0.175,1.4645
-0.484,0.1785,1.467
-0.48,0.1825,1.4705
-0.4775,0.1845,1.4715
-0.4795,0.1835,1.4735
-0.481,0.1825,1.4735
-0.48,0.1835,1.473
-0.4805,0.181,1.471
-0.4775,0.182,1.47
-0.4735,0.1845,1.4715
-0.4695,0.186,1.4695
-0.4665,0.1875,1.4715
-0.466,0.187,1.472
-0.4645,0.1875,1.472
-0.464,0.183,1.472
-0.4675,0.1825,1.47
-0.4675,0.1835,1.471
-0.463,0.1845,1.472
-0.464,0.185,1.4725
-0.466,0.1855,1.4745
-0.466,0.1875,1.478
-0.4675,0.186,1.4775
-0.4675,0.1855,1.4735
-0.4695,0.1865,1.4735
-0.47,0.184,1.473
-0.472,0.177,1.4715
-0.4755,0.175,1.469
-0.4775,0.1745,1.4665
-0.474,0.1755,1.4625
-0.4705,0.1775,1.458
-0.4745,0.173,1.4545
-0.474,0.1725,1.453
-0.4735,0.175,1.4505
-0.474,0.1725,1.447
-0.471,0.1735,1.445
-0.466,0.18,1.442
-0.458,0.1825,1.4395
-0.454,0.183,1.438
-0.4565,0.184,1.4375
-0.457,0.185,1.437
-0.453,0.186,1.439
-0.4505,0.188,1.4395
-0.4505,0.1905,1.4405
-0.4495,0.1905,1.442
-0.4505,0.1925,1.44
-0.453,0.1955,1.4425
-0.4535,0.1935,1.443
-0.454,0.1915,1.4425
-0.452,0.1925,1.445
-0.446,0.1955,1.444
-0.4405,0.2005,1.4465
-0.4345,0.204,1.4505
-0.432,0.207,1.456
-0.4305,0.211,1.4605
-0.4285,0.21,1.4595
-0.4255,0.211,1.457
-0.419,0.214,1.456
-0.421,0.213,1.46
-0.426,0.2125,1.4605
-0.4305,0.211,1.4595
-0.4325,0.2105,1.46
-0.433,0.21,1.4575
-0.436,0.209,1.4565
-0.4355,0.2075,1.458
-0.437,0.204,1.457
-0.4365,0.2035,1.4555
-0.437,0.2045,1.455
-0.4415,0.202,1.4545
-0.449,0.2025,1.458
-0.456,0.2035,1.4585
-0.457,0.2025,1.458
-0.459,0.201,1.463
-0.462,0.1975,1.4655
-0.466,0.195,1.4675
-0.467,0.195,1.4725
-0.4695,0.1965,1.476
-0.474,0.196,1.4765
-0.476,0.1885,1.4765
-0.4805,0.186,1.4775
-0.483,0.19,1.479
-0.4845,0.1885,1.4795
-0.484,0.182,1.476
-0.4865,0.179,1.475
-0.488,0.178,1.476
-0.4915,0.1755,1.4755
-0.4935,0.1735,1.4745
-0.493,0.173,1.474
-0.4935,0.17,1.474
-0.4935,0.167,1.4745
-0.5015,0.1635,1.4745
-0.5,0.1605,1.4715
-0.499,0.1605,1.4725
-0.5045,0.1575,1.473
-0.5045,0.1555,1.4705
-0.505,0.155,1.467
-0.5065,0.152,1.4645
-0.508,0.154,1.4655
-0.5075,0.1535,1.4675
-0.508,0.1505,1.4675
-0.5085,0.153,1.4675
-0.51,0.1545,1.4675
-0.516,0.1525,1.4655
-0.5155,0.1495,1.469
-0.511,0.1525,1.47
-0.513,0.153,1.47
-0.5165,0.15,1.472
-0.518,0.1495,1.4705
-0.517,0.1505,1.4695
-0.5175,0.1535,1.47
-0.5175,0.1525,1.4695
-0.514,0.153,1.471
-0.512,0.154,1.471
-0.512,0.1535,1.472
-0.511,0.155,1.473
-0.5115,0.156,1.472
-0.5145,0.1545,1.4725
-0.515,0.1565,1.474
-0.5145,0.158,1.474
-0.5145,0.1575,1.476
-0.513,0.16,1.477
-0.513,0.161,1.477
-0.516,0.1625,1.48
-0.517,0.1615,1.48
-0.5155,0.1605,1.48
-0.517,0.162,1.482
-0.515,0.1615,1.4825
-0.5125,0.1615,1.4805
-0.5125,0.1635,1.4805
-0.51,0.166,1.481
-0.508,0.17,1.4825
-0.5075,0.1755,1.4865
-0.508,0.183,1.4915
-0.5085,0.1835,1.4975
-0.508,0.183,1.5035
-0.506,0.1945,1.5085
-0.504,0.204,1.5135
-0.508,0.206,1.5235
-0.508,0.209,1.537
-0.5045,0.2175,1.5505
-0.502,0.2285,1.568
-0.497,0.2405,1.5825
-0.479,0.2705,1.592
-0.4475,0.3185,1.606
-0.4245,0.356,1.618
-0.4005,0.397,1.6275
-0.3685,0.4585,1.641
-0.343,0.51,1.6545
-0.309,0.5665,1.669
-0.266,0.6375,1.6845
-0.2185,0.709,1.699
-0.1615,0.787,1.7075
-0.129,0.8355,1.711
-0.1115,0.8675,1.7145
-0.094,0.888,1.7165
-0.084,0.893,1.7135
-0.0685,0.917,1.7125
-0.0505,0.95,1.7085
-0.042,0.9765,1.6995
-0.0345,0.9935,1.6975
-0.0215,1.0235,1.6935
-0.028,1.0455,1.686
-0.0375,1.0565,1.6755
-0.045,1.058,1.6555
-0.065,1.0355,1.6385
-0.0745,1.0165,1.622
-0.0965,0.977,1.6105
-0.1275,0.9205,1.6055
-0.187,0.823,1.59
-0.2635,0.7015,1.5635
-0.306,0.6185,1.5085
-0.3405,0.529,1.4455
-0.38,0.422,1.4035
-0.419,0.3195,1.365
-0.444,0.2325,1.327
-0.4715,0.1425,1.295
-0.512,0.0295,1.2715
-0.556,-0.071,1.2585
-0.5855,-0.1255,1.2535
-0.597,-0.152,1.252
-0.6065,-0.1625,1.257
-0.608,-0.145,1.267
-0.6065,-0.1235,1.277
-0.596,-0.0995,1.2895
-0.5825,-0.0755,1.301
-0.58,-0.0595,1.314
-0.5815,-0.044,1.3265
-0.581,-0.032,1.342
-0.581,-0.018,1.3595
-0.575,0.003,1.3745
-0.5665,0.023,1.384
-0.5655,0.0315,1.392
-0.5605,0.0415,1.402
-0.5585,0.0535,1.4105
-0.554,0.066,1.4185
-0.5425,0.085,1.428
-0.5345,0.1035,1.4395
-0.529,0.118,1.446
-0.523,0.1295,1.452
-0.5185,0.1355,1.4565
-0.512,0.1395,1.463
-0.505,0.15,1.4715
-0.5045,0.1585,1.471
-0.503,0.159,1.474
-0.5045,0.161,1.4765
-0.506,0.1605,1.475
-0.5045,0.162,1.4745
-0.502,0.165,1.4745
-0.5005,0.166,1.4735
-0.5,0.1695,1.4735
-0.5025,0.1685,1.4745
-0.505,0.166,1.4745
-0.5045,0.1665,1.477
-0.5035,0.1665,1.4775
-0.5005,0.1675,1.4785
-0.498,0.168,1.479
-0.498,0.168,1.4785
-0.4965,0.168,1.48
-0.4985,0.167,1.4795
-0.5015,0.1685,1.4785
-0.4985,0.17,1.4805
-0.498,0.1705,1.483
-0.5005,0.1695,1.4835
-0.502,0.169,1.483
-0.4995,0.1725,1.482
-0.4995,0.173,1.483
-0.5015,0.172,1.4855
-0.4985,0.172,1.484
-0.4985,0.175,1.484
-0.498,0.1795,1.4825
-0.495,0.176,1.481
-0.497,0.1715,1.4845
-0.497,0.174,1.486
-0.4935,0.176,1.486
-0.493,0.176,1.484
-0.493,0.177,1.483
-0.492,0.1805,1.485
-0.4935,0.1805,1.4855
-0.4915,0.18,1.4875
-0.491,0.181,1.4865
-0.491,0.178,1.4845
-0.49,0.1775,1.487
-0.4935,0.1795,1.4875
-0.4905,0.183,1.4855
-0.489,0.184,1.4845
-0.4905,0.1815,1.4865
-0.492,0.182,1.488
-0.4945,0.182,1.488
-0.4945,0.1815,1.4865
-0.494,0.184,1.4855
-0.491,0.1855,1.484
-0.488,0.185,1.483
-0.488,0.1855,1.483
-0.488,0.1865,1.4825
-0.4875,0.187,1.482
-0.4855,0.1885,1.4815
-0.4845,0.1875,1.482
-0.4875,0.188,1.483
-0.484,0.1915,1.4835
-0.48,0.189,1.482
-0.4815,0.1895,1.482
-0.4835,0.1925,1.4835
-0.4855,0.193,1.4825
-0.4885,0.191,1.483
-0.49,0.1885,1.4835
-0.4895,0.191,1.4855
-0.488,0.194,1.487
-0.4875,0.193,1.487
-0.486,0.194,1.488
-0.4825,0.1975,1.489
-0.4795,0.1985,1.4885
-0.477,0.198,1.4875
-0.4775,0.1975,1.487
-0.476,0.1975,1.487
-0.474,0.2005,1.4875
-0.472,0.202,1.4855
-0.468,0.2005,1.4865
-0.467,0.1995,1.4865
-0.4655,0.2015,1.487
-0.463,0.2045,1.4895
-0.4615,0.2065,1.4885
-0.4645,0.206,1.489
-0.467,0.206,1.488
-0.4675,0.2095,1.4895
-0.469,0.2105,1.489
-0.4715,0.21,1.488
-0.4745,0.2115,1.4885
-0.4735,0.2135,1.486
-0.4725,0.2145,1.489
-0.472,0.2155,1.4905
-0.471,0.2195,1.49
-0.4705,0.219,1.488
-0.47,0.2145,1.489
-0.468,0.216,1.489
-0.467,0.218,1.4875
-0.467,0.22,1.489
-0.4645,0.2205,1.4875
-0.464,0.223,1.4885
-0.4625,0.2275,1.4895
-0.457,0.229,1.49
-0.4595,0.23,1.49
-0.462,0.2305,1.4875
-0.462,0.2315,1.4885
-0.4635,0.2335,1.4895
-0.461,0.237,1.49
-0.456,0.239,1.49
-0.4555,0.239,1.489
-0.4565,0.24,1.49
-0.4535,0.242,1.49
-0.45,0.245,1.4905
-0.4465,0.247,1.489
-0.446,0.247,1.4905
-0.442,0.2475,1.492
-0.4355,0.2515,1.4915
-0.4325,0.2535,1.492
-0.4315,0.2555,1.492
-0.4325,0.2575,1.494
-0.433,0.2585,1.4945
-0.436,0.2605,1.495
-0.4325,0.2665,1.4935
-0.4285,0.2705,1.496
-0.4295,0.2685,1.5005
-0.429,0.2715,1.499
-0.428,0.2735,1.498
-0.4235,0.276,1.499
-0.422,0.2785,1.5015
-0.42,0.281,1.501
-0.4185,0.284,1.502
-0.419,0.2855,1.501
-0.4145,0.2915,1.4985
-0.4115,0.2955,1.502
-0.409,0.298,1.503
-0.4075,0.3015,1.5025
-0.404,0.306,1.504
-0.4,0.3095,1.504
-0.398,0.313,1.5025
-0.3985,0.315,1.5025
-0.396,0.32,1.505
-0.391,0.325,1.505
-0.3895,0.3265,1.505
-0.3865,0.3305,1.5065
-0.384,0.335,1.509
-0.38,0.3405,1.511
-0.3775,0.346,1.512
-0.3785,0.3505,1.5125
-0.3735,0.3535,1.513
-0.3665,0.3595,1.512
-0.362,0.3645,1.5115
-0.361,0.368,1.514
-0.358,0.3725,1.514
-0.3525,0.3765,1.5165
-0.348,0.3815,1.5175
-0.3475,0.3865,1.5195
-0.345,0.392,1.5205
-0.3405,0.398,1.52
-0.338,0.403,1.5215
-0.331,0.407,1.523
-0.322,0.414,1.526
-0.32,0.4195,1.5265
-0.3225,0.423,1.5285
-0.3205,0.429,1.5305
-0.3145,0.4375,1.53
-0.312,0.44,1.531
-0.3105,0.441,1.533
-0.307,0.447,1.533
-0.3055,0.453,1.5355
-0.3035,0.4595,1.537
-0.3005,0.4635,1.5355
-0.295,0.4645,1.5365
-0.29,0.4695,1.538
-0.286,0.4765,1.5395
-0.2815,0.48,1.539
-0.2755,0.4815,1.5415
-0.2695,0.4865,1.5455
-0.2675,0.4915,1.545
-0.262,0.495,1.544
-0.2585,0.4995,1.546
-0.2575,0.503,1.547
-0.2535,0.5055,1.548
-0.251,0.5085,1.5485
-0.252,0.512,1.5485
-0.2555,0.514,1.548
-0.253,0.517,1.5495
-0.2475,0.521,1.551
-0.248,0.524,1.552
-0.2455,0.5275,1.555
-0.241,0.5285,1.5545
-0.24,0.5295,1.5555
-0.242,0.532,1.558
-0.2425,0.5355,1.559
-0.238,0.5375,1.5585
-0.2335,0.5375,1.558
-0.2325,0.5395,1.56
-0.232,0.542,1.56
-0.231,0.543,1.56
-0.231,0.5445,1.562
-0.232,0.546,1.5635
-0.23,0.5445,1.5635
-0.2315,0.543,1.5655
-0.2315,0.5445,1.5665
-0.234,0.5465,1.564
-0.2355,0.5475,1.564
-0.235,0.545,1.564
-0.238,0.5415,1.564
-0.2345,0.542,1.565
-0.2335,0.542,1.566
-0.236,0.5405,1.566
-0.238,0.5395,1.564
-0.2375,0.537,1.5635
-0.236,0.534,1.5645
-0.2385,0.531,1.562
-0.2415,0.5265,1.561
-0.2455,0.521,1.5635
-0.2475,0.515,1.561
-0.2515,0.5105,1.5595
-0.254,0.506,1.5605
-0.2575,0.5,1.561
-0.2675,0.492,1.558
-0.2735,0.4865,1.556
-0.2775,0.4805,1.557
-0.2835,0.472,1.556
-0.2905,0.4655,1.5545
-0.295,0.458,1.5515
-0.2985,0.451,1.5475
-0.3065,0.4435,1.5475
-0.314,0.436,1.5475
-0.316,0.429,1.5455
-0.3205,0.422,1.5435
-0.3255,0.414,1.54
-0.327,0.4055,1.539
-0.329,0.399,1.5375
-0.335,0.391,1.536
-0.34,0.383,1.536
-0.344,0.3755,1.533
-0.3475,0.367,1.53
-0.3535,0.3595,1.527
-0.3625,0.3505,1.5265
-0.37,0.341,1.524
-0.3755,0.334,1.522
-0.3805,0.3255,1.523
-0.3865,0.316,1.522
-0.393,0.31,1.5215
-0.3975,0.3025,1.5175
-0.402,0.2945,1.5145
-0.405,0.289,1.5125
-0.407,0.2815,1.509
-0.4115,0.275,1.5085
-0.415,0.2685,1.5075
-0.42,0.2615,1.504
-0.4265,0.256,1.5035
-0.4315,0.2515,1.503
-0.433,0.2455,1.501
-0.4335,0.2375,1.5
-0.436,0.2335,1.5005
-0.437,0.2365,1.498
-0.44,0.232,1.493
-0.443,0.22,1.49
-0.4465,0.2165,1.4885
-0.4495,0.2155,1.488
-0.455,0.2105,1.4885
-0.457,0.21,1.488
-0.454,0.207,1.4885
-0.4555,0.204,1.486
-0.4565,0.2005,1.4825
-0.457,0.1965,1.482
-0.462,0.1925,1.4825
-0.464,0.1895,1.4805
-0.466,0.1875,1.479
-0.468,0.1845,1.477
-0.4685,0.184,1.4765
-0.473,0.181,1.4765
-0.475,0.177,1.474
-0.473,0.174,1.4765
-0.4705,0.173,1.474
-0.4705,0.1745,1.4745
-0.473,0.1705,1.4765
-0.474,0.1655,1.4745
-0.4735,0.169,1.4735
-0.4755,0.167,1.472
-0.4835,0.1615,1.472
-0.488,0.162,1.4705
-0.488,0.1595,1.4705
-0.487,0.1585,1.471
-0.486,0.1585,1.47
-0.487,0.156,1.472
-0.485,0.156,1.4715
-0.4865,0.156,1.4705
-0.488,0.1535,1.4695
-0.488,0.154,1.4685
-0.4875,0.1575,1.4665
-0.489,0.153,1.4675
-0.491,0.1495,1.47
-0.4865,0.1505,1.468
-0.4855,0.151,1.4675
-0.488,0.153,1.466
-0.4875,0.1525,1.466
-0.4855,0.1545,1.4675
-0.487,0.1575,1.4665
-0.491,0.151,1.4695
-0.4915,0.1475,1.4705
-0.494,0.1505,1.468
-0.496,0.15,1.467
-0.4975,0.1495,1.466
-0.497,0.1495,1.4645
-0.497,0.149,1.4645
-0.501,0.1465,1.4645
-0.5015,0.1475,1.4645
-0.501,0.1495,1.4635
-0.501,0.146,1.462
-0.498,0.144,1.462
-0.497,0.144,1.4615
-0.498,0.145,1.459
-0.496,0.144,1.46
-0.493,0.144,1.46
-0.4965,0.1425,1.4585
-0.4975,0.143,1.458
-0.495,0.1435,1.458
-0.497,0.1415,1.4575
-0.4975,0.141,1.4575
-0.499,0.1395,1.458
-0.503,0.1385,1.4575
-0.5065,0.1385,1.4605
-0.508,0.141,1.461
-0.507,0.14,1.4595
-0.507,0.14,1.4605
-0.507,0.1405,1.4615
-0.506,0.141,1.46
-0.505,0.1415,1.4595
-0.4985,0.142,1.4615
-0.4975,0.145,1.459
-0.5015,0.144,1.458
-0.5005,0.1425,1.458
-0.5005,0.14,1.4585
-0.5015,0.141,1.4615
-0.501,0.145,1.459
-0.498,0.144,1.4575
-0.4945,0.1455,1.4585
-0.494,0.1485,1.4615
-0.4975,0.1465,1.4635
-0.501,0.1405,1.4635
-0.5005,0.1415,1.4625
-0.498,0.1435,1.462
-0.498,0.1425,1.462
-0.501,0.142,1.463
-0.5045,0.1395,1.465
-0.5045,0.1385,1.4655
-0.5065,0.1385,1.4635
-0.506,0.1395,1.463
-0.505,0.1405,1.4615
-0.5085,0.1395,1.463
-0.5075,0.139,1.463
-0.5045,0.139,1.4615
-0.505,0.14,1.463
-0.5045,0.1385,1.4625
-0.5025,0.139,1.464
-0.5005,0.1415,1.4625
-0.501,0.139,1.462
-0.5,0.1405,1.4625
-0.4975,0.1405,1.4615
-0.497,0.139,1.4605
-0.4985,0.139,1.4595
-0.4985,0.139,1.462
-0.497,0.1405,1.46
-0.496,0.14,1.4595
-0.496,0.1405,1.461
-0.4975,0.14,1.461
-0.497,0.1395,1.4585
-0.4975,0.143,1.4555
-0.4975,0.143,1.4555
-0.495,0.1425,1.4555
-0.4965,0.143,1.4555
-0.4985,0.1415,1.455
-0.499,0.1405,1.457
-0.4995,0.143,1.457
-0.4985,0.142,1.456
-0.4975,0.1425,1.455
-0.497,0.145,1.453
-0.497,0.147,1.455
-0.4955,0.1485,1.4575
-0.496,0.149,1.4565
-0.498,0.148,1.4575
-0.495,0.1475,1.4605
-0.4955,0.148,1.459
-0.4975,0.146,1.4595
-0.5,0.147,1.4575
-0.5005,0.147,1.457
-0.4975,0.145,1.4565
-0.4985,0.1445,1.4575
-0.4985,0.143,1.4575
-0.497,0.143,1.4555
-0.4945,0.1445,1.4555
-0.4915,0.1445,1.4525
-0.4905,0.1445,1.4525
-0.4915,0.1425,1.4535
-0.4925,0.1415,1.4525
-0.4945,0.1435,1.4515
-0.4935,0.1435,1.451
-0.491,0.1455,1.45
-0.4905,0.1465,1.451
-0.492,0.147,1.45
-0.4955,0.146,1.4495
-0.498,0.146,1.449
-0.5015,0.1465,1.4475
-0.4985,0.1455,1.4495
-0.495,0.147,1.4485
-0.4965,0.148,1.4465
-0.4975,0.151,1.4465
-0.5005,0.1515,1.4455
-0.5035,0.146,1.444
-0.5035,0.144,1.445
-0.501,0.1435,1.4425
-0.5005,0.1465,1.4405
-0.4965,0.1485,1.4415
-0.4945,0.148,1.442
-0.495,0.1485,1.4435
-0.491,0.1465,1.4425
-0.4935,0.1455,1.4415
-0.4925,0.1465,1.4445
-0.4895,0.148,1.443
-0.4935,0.148,1.4435
-0.4945,0.148,1.4455
-0.496,0.147,1.4445
-0.498,0.15,1.4435
-0.494,0.151,1.4405
-0.493,0.147,1.4425
-0.4935,0.144,1.4445
-0.49,0.143,1.444
-0.493,0.145,1.444
-0.4935,0.145,1.4415
-0.4895,0.144,1.4415
-0.493,0.145,1.441
-0.493,0.1445,1.441
-0.491,0.143,1.4425
-0.4935,0.1415,1.4415
-0.4945,0.141,1.4395
-0.494,0.142,1.439
-0.493,0.1425,1.4385
-0.494,0.1455,1.4365
-0.4945,0.144,1.4355
-0.4955,0.1415,1.436
-0.496,0.1405,1.437
-0.495,0.1395,1.4375
-0.4955,0.141,1.4365
-0.496,0.1405,1.4345
-0.4985,0.1395,1.434
-0.501,0.138,1.434
-0.5,0.138,1.4335
-0.5,0.136,1.4335
-0.5,0.1365,1.4325
-0.497,0.14,1.4315
-0.5,0.135,1.432
-0.502,0.1325,1.434
-0.4985,0.133,1.4355
-0.4975,0.1335,1.435
-0.498,0.1325,1.4335
-0.498,0.1305,1.4325
-0.4985,0.1305,1.4325
-0.498,0.131,1.4315
-0.498,0.132,1.4305
-0.5005,0.1305,1.4305
-0.501,0.131,1.43
-0.5015,0.1295,1.429
-0.505,0.129,1.428
-0.5045,0.1285,1.4285
-0.5045,0.126,1.428
-0.507,0.1255,1.4265
-0.5065,0.125,1.427
-0.5035,0.124,1.4275
-0.499,0.1255,1.4285
-0.4975,0.127,1.428
-0.498,0.1245,1.4255
-0.501,0.123,1.425
-0.504,0.121,1.4255
-0.5015,0.119,1.426
-0.501,0.1215,1.4265
-0.501,0.1225,1.4265
-0.501,0.1215,1.4255
-0.499,0.121,1.4235
-0.501,0.1215,1.423
-0.4995,0.122,1.4225
-0.4995,0.1215,1.4245
-0.504,0.119,1.424
-0.506,0.118,1.424
-0.508,0.118,1.425
-0.509,0.1175,1.425
-0.5115,0.119,1.4255
-0.51,0.118,1.425
-0.507,0.1175,1.4255
-0.5055,0.1195,1.4245
-0.506,0.119,1.4245
-0.507,0.1175,1.423
-0.504,0.1155,1.423
-0.503,0.116,1.4235
-0.504,0.1165,1.423
-0.5045,0.1155,1.4245
-0.5045,0.116,1.423
-0.5025,0.1155,1.421
-0.5005,0.116,1.421
-0.502,0.114,1.42
-0.5045,0.114,1.4205
-0.5045,0.117,1.423
-0.507,0.1145,1.421
-0.5085,0.1135,1.42
-0.5075,0.1135,1.4215
-0.5065,0.113,1.42
-0.5065,0.113,1.42
-0.508,0.112,1.4205
-0.5075,0.109,1.42
-0.5085,0.109,1.419
-0.5075,0.113,1.418
-0.5045,0.1115,1.4165
-0.5065,0.1105,1.4165
-0.507,0.1085,1.4185
-0.506,0.107,1.419
-0.502,0.109,1.4195
-0.502,0.1085,1.418
-0.5045,0.1075,1.418
-0.504,0.105,1.416
-0.506,0.1065,1.415
-0.511,0.106,1.4165
-0.5195,0.1005,1.415
-0.5215,0.101,1.414
-0.516,0.102,1.413
-0.515,0.103,1.415
-0.518,0.1015,1.416
-0.518,0.099,1.415
-0.514,0.1,1.414
-0.5115,0.1,1.414
-0.5095,0.0995,1.4155
-0.5095,0.101,1.4145
-0.507,0.1015,1.4135
-0.5055,0.1015,1.413
-0.51,0.1005,1.413
-0.5085,0.101,1.4115
-0.505,0.103,1.4115
-0.5045,0.1025,1.412
-0.5045,0.103,1.413
-0.5035,0.104,1.415
-0.5005,0.1035,1.413
-0.5015,0.1025,1.4115
-0.507,0.1035,1.4145
-0.5075,0.1025,1.414
-0.508,0.099,1.414
-0.511,0.098,1.415
-0.5115,0.098,1.4115
-0.511,0.097,1.4115
-0.5105,0.0975,1.411
-0.511,0.0965,1.409
-0.512,0.095,1.4095
-0.5135,0.097,1.4095
-0.513,0.095,1.409
-0.511,0.096,1.408
-0.5085,0.0985,1.409
-0.5095,0.0965,1.4085
-0.511,0.0945,1.407
-0.508,0.094,1.407
-0.5095,0.097,1.405
-0.511,0.1,1.402
-0.513,0.0935,1.4045
-0.516,0.0925,1.4065
-0.515,0.0985,1.4055
-0.5155,0.093,1.404
-0.5155,0.089,1.4035
-0.5145,0.0915,1.404
-0.5155,0.0905,1.4035
-0.5145,0.0905,1.403
-0.5155,0.0905,1.4035
-0.515,0.09,1.404
-0.5135,0.0895,1.4045
-0.512,0.0915,1.403
-0.511,0.0915,1.4005
-0.512,0.092,1.403
-0.513,0.091,1.404
-0.511,0.09,1.4025
-0.512,0.0925,1.4015
-0.5165,0.092,1.402
-0.5185,0.09,1.4005
-0.518,0.0905,1.4015
-0.516,0.0915,1.4035
-0.5175,0.0915,1.402
-0.52,0.0915,1.4045
-0.5185,0.091,1.4055
-0.5165,0.0915,1.4055
-0.5145,0.0915,1.407
-0.5165,0.092,1.4085
-0.5205,0.0915,1.407
-0.5195,0.091,1.406
-0.5175,0.0915,1.408
-0.518,0.089,1.4065
-0.518,0.0905,1.4055
-0.516,0.09,1.4045
-0.5145,0.0895,1.403
-0.5145,0.0915,1.4025
-0.5145,0.0895,1.403
-0.515,0.0885,1.403
-0.514,0.0895,1.404
-0.512,0.092,1.403
-0.5085,0.095,1.4
-0.51,0.089,1.4015
-0.515,0.0855,1.4035
-0.515,0.088,1.4035
-0.5145,0.0895,1.4045
-0.516,0.09,1.4055
-0.5165,0.089,1.4045
-0.5145,0.089,1.4035
-0.516,0.0885,1.405
-0.518,0.0895,1.405
-0.518,0.089,1.406
-0.518,0.0905,1.404
-0.515,0.09,1.402
-0.5145,0.088,1.4025
-0.5145,0.0895,1.402
-0.5115,0.089,1.402
-0.511,0.089,1.4015
-0.5115,0.088,1.4025
-0.509,0.0885,1.402
-0.51,0.0895,1.4015
-0.5125,0.089,1.4025
-0.5115,0.089,1.402
-0.5125,0.0875,1.4025
-0.5145,0.0885,1.403
-0.5145,0.089,1.405
-0.515,0.089,1.405
-0.5145,0.0905,1.4055
-0.515,0.0915,1.409
-0.513,0.092,1.4095
-0.512,0.092,1.4115
-0.512,0.0935,1.413
-0.5115,0.0935,1.4105
-0.5135,0.0925,1.4095
-0.513,0.0925,1.409
-0.5085,0.094,1.4075
-0.5065,0.095,1.408
-0.508,0.0945,1.4085
-0.5055,0.097,1.408
-0.502,0.099,1.4065
-0.498,0.1005,1.4075
-0.4975,0.1025,1.407
-0.4965,0.1025,1.4085
-0.4965,0.103,1.412
-0.497,0.1055,1.413
-0.4945,0.1055,1.415
-0.493,0.1055,1.415
-0.493,0.107,1.4155
-0.491,0.1055,1.415
-0.488,0.1035,1.4145
-0.486,0.106,1.415
-0.484,0.1105,1.415
-0.484,0.11,1.4145
-0.482,0.1075,1.415
-0.48,0.108,1.416
-0.481,0.108,1.4145
-0.483,0.108,1.4145
-0.483,0.107,1.415
-0.4825,0.1095,1.4165
-0.481,0.1135,1.419
-0.4805,0.1125,1.4185
-0.478,0.1095,1.419
-0.477,0.109,1.4185
-0.477,0.109,1.416
-0.4745,0.1105,1.416
-0.4765,0.11,1.4115
-0.477,0.108,1.408
-0.477,0.108,1.404
-0.478,0.108,1.3995
-0.48,0.105,1.3975
-0.482,0.1025,1.394
-0.4815,0.101,1.393
-0.4845,0.1025,1.3915
-0.4835,0.1025,1.3905
-0.4775,0.105,1.387
-0.4705,0.1135,1.3835
-0.467,0.1135,1.385
-0.467,0.1115,1.3825
-0.467,0.111,1.3785
-0.4645,0.112,1.381
-0.459,0.118,1.381
-0.456,0.122,1.3815
-0.4535,0.124,1.3825
-0.452,0.124,1.382
-0.454,0.1245,1.3865
-0.455,0.125,1.389
-0.4585,0.124,1.386
-0.4625,0.123,1.385
-0.4615,0.122,1.387
-0.458,0.126,1.39
-0.4505,0.1315,1.3955
-0.4455,0.1345,1.3975
-0.4405,0.1415,1.402
-0.436,0.143,1.405
-0.4375,0.138,1.4045
-0.435,0.1395,1.406
-0.4335,0.14,1.4045
-0.4375,0.139,1.4045
-0.438,0.14,1.4055
-0.436,0.138,1.4035
-0.4355,0.1375,1.4025
-0.4395,0.1365,1.4025
-0.4465,0.1325,1.4015
-0.4485,0.1295,1.4015
-0.4515,0.128,1.401
-0.452,0.128,1.3985
-0.452,0.131,1.396
-0.457,0.128,1.3965
-0.4585,0.122,1.4005
-0.4625,0.124,1.404
-0.467,0.1255,1.405
-0.472,0.1215,1.4065
-0.478,0.1205,1.409
-0.481,0.1175,1.4125
-0.4845,0.114,1.415
-0.489,0.113,1.4165
-0.493,0.1125,1.417
-0.494,0.1095,1.418
-0.4955,0.1065,1.4155
-0.4975,0.1075,1.4135
-0.5015,0.106,1.414
-0.507,0.1025,1.413
-0.51,0.0985,1.412
-0.5115,0.0975,1.4105
-0.5125,0.099,1.412
-0.514,0.096,1.411
-0.514,0.0945,1.408
-0.514,0.0935,1.4075
-0.517,0.0895,1.407
-0.522,0.0865,1.4065
-0.527,0.0855,1.4065
-0.53,0.085,1.4065
-0.529,0.081,1.405
-0.5285,0.078,1.4045
-0.5285,0.0755,1.4035
-0.5275,0.078,1.402
-0.5255,0.0815,1.402
-0.5245,0.077,1.405
-0.5255,0.0765,1.4045
-0.5265,0.077,1.4015
-0.527,0.076,1.404
-0.529,0.077,1.4035
-0.533,0.077,1.405
-0.533,0.077,1.4075
-0.5325,0.077,1.4085
-0.5305,0.079,1.4095
-0.5285,0.0795,1.409
-0.528,0.0815,1.411
-0.5305,0.0795,1.4105
-0.5355,0.078,1.4105
-0.5355,0.0815,1.41
-0.535,0.081,1.41
-0.5315,0.082,1.411
-0.5305,0.0815,1.4095
-0.5315,0.0795,1.411
-0.5295,0.0815,1.411
-0.5275,0.0825,1.41
-0.527,0.082,1.4125
-0.5295,0.0835,1.412
-0.528,0.0845,1.4125
-0.524,0.0845,1.414
-0.5225,0.0855,1.4135
-0.5225,0.0855,1.4145
-0.5245,0.0875,1.4145
-0.525,0.087,1.415
-0.5245,0.088,1.4165
-0.526,0.093,1.4165
-0.526,0.0935,1.4165
-0.5275,0.097,1.416
-0.529,0.1015,1.419
-0.5265,0.1045,1.4255
-0.525,0.108,1.4315
-0.5215,0.114,1.438
-0.5195,0.124,1.4435
-0.5175,0.1285,1.4485
-0.519,0.13,1.4595
-0.519,0.136,1.4715
-0.515,0.1455,1.4835
-0.512,0.1575,1.4965
-0.5015,0.174,1.51
-0.485,0.1995,1.5215
-0.46,0.2435,1.532
-0.4345,0.2835,1.5435
-0.41,0.3235,1.5525
-0.375,0.388,1.566
-0.3445,0.4415,1.5785
-0.308,0.4985,1.589
-0.2615,0.5665,1.603
-0.215,0.6355,1.618
-0.165,0.714,1.627
-0.13,0.764,1.63
-0.109,0.7975,1.6335
-0.091,0.8185,1.6355
-0.081,0.823,1.6335
-0.067,0.8415,1.63
-0.046,0.872,1.627
-0.0335,0.8975,1.6195
-0.0305,0.9125,1.612
-0.019,0.94,1.6085
-0.016,0.9655,1.6025
-0.0265,0.98,1.5935
-0.034,0.9855,1.578
-0.0505,0.967,1.5645
-0.0645,0.948,1.5475
-0.085,0.917,1.5365
-0.1135,0.8665,1.529
-0.168,0.7785,1.5085
-0.256,0.6565,1.4825
-0.315,0.5615,1.4325
-0.353,0.4735,1.3775
-0.3945,0.3705,1.338
-0.436,0.266,1.3015
-0.465,0.179,1.267
-0.495,0.0905,1.2355
-0.5385,-0.0265,1.2105
-0.583,-0.1395,1.2
-0.615,-0.2125,1.1985
-0.6275,-0.243,1.196
-0.64,-0.254,1.196
-0.6445,-0.2405,1.2025
-0.6415,-0.2185,1.214
-0.6295,-0.194,1.2285
-0.6115,-0.166,1.2415
-0.605,-0.1485,1.2515
-0.6025,-0.134,1.264
-0.5975,-0.1175,1.277
-0.594,-0.102,1.292
-0.5915,-0.081,1.3095
-0.5865,-0.0585,1.323
-0.583,-0.046,1.332
-0.578,-0.035,1.34
-0.5765,-0.0215,1.349
-0.5725,-0.007,1.36
-0.564,0.012,1.3705
-0.5565,0.028,1.3805
-0.5475,0.0385,1.3885
-0.542,0.05,1.3915
-0.537,0.059,1.397
-0.5335,0.068,1.4
-0.5265,0.076,1.402
-0.5195,0.0825,1.4065
-0.5175,0.0875,1.4095
-0.517,0.0875,1.412
-0.5155,0.0895,1.415
-0.514,0.09,1.416
-0.5165,0.0875,1.416
-0.5165,0.089,1.415
-0.517,0.0915,1.416
-0.5185,0.093,1.4175
-0.517,0.094,1.4165
-0.5195,0.0945,1.417
-0.5215,0.093,1.418
-0.5205,0.0935,1.4195
-0.5165,0.0955,1.4195
-0.515,0.096,1.4195
-0.5135,0.095,1.4215
-0.512,0.094,1.422
-0.515,0.0985,1.423
-0.515,0.1005,1.4225
-0.5155,0.093,1.423
-0.5145,0.091,1.4245
-0.511,0.0945,1.4255
-0.5095,0.0945,1.425
-0.509,0.097,1.424
-0.509,0.0995,1.428
-0.511,0.0995,1.4295
-0.5145,0.1,1.426
-0.513,0.101,1.427
-0.511,0.1015,1.428
-0.5105,0.102,1.427
-0.508,0.1015,1.4255
-0.5095,0.1005,1.4265
-0.508,0.104,1.4285
-0.505,0.106,1.426
-0.5045,0.107,1.4255
-0.5045,0.1065,1.425
-0.5045,0.1025,1.4235
-0.504,0.103,1.4255
-0.5055,0.105,1.4265
-0.506,0.107,1.4265
-0.506,0.1075,1.428
-0.5045,0.1075,1.4275
-0.502,0.1075,1.427
-0.504,0.1095,1.4265
-0.505,0.111,1.4255
-0.508,0.109,1.429
-0.5105,0.11,1.4305
-0.5085,0.11,1.429
-0.5085,0.109,1.4295
-0.507,0.114,1.4285
-0.509,0.115,1.4305
-0.512,0.1125,1.431
-0.512,0.112,1.429
-0.509,0.1135,1.4295
-0.5045,0.1155,1.4295
-0.5045,0.116,1.4305
-0.503,0.1165,1.4305
-0.499,0.1145,1.4315
-0.4985,0.1155,1.4315
-0.4985,0.1185,1.432
-0.501,0.1175,1.432
-0.503,0.1185,1.4305
-0.5,0.1195,1.4325
-0.498,0.1215,1.4335
-0.4945,0.1235,1.4335
-0.4945,0.124,1.4335
-0.4975,0.126,1.4355
-0.4975,0.127,1.436
-0.497,0.1285,1.4365
-0.496,0.1285,1.439
-0.4955,0.1285,1.439
-0.4935,0.131,1.44
-0.491,0.1315,1.437
-0.4905,0.1335,1.437
-0.4915,0.1355,1.4375
-0.4895,0.1345,1.439
-0.487,0.1325,1.4385
-0.485,0.132,1.437
-0.4835,0.135,1.4365
-0.4845,0.137,1.435
-0.4835,0.1385,1.437
-0.4835,0.14,1.435
-0.4825,0.141,1.436
-0.478,0.1405,1.438
-0.4785,0.1415,1.4395
-0.4785,0.1425,1.44
-0.4795,0.142,1.4385
-0.4825,0.1455,1.439
-0.481,0.146,1.438
-0.4815,0.148,1.4375
-0.4805,0.15,1.439
-0.48,0.1485,1.4375
-0.4795,0.1505,1.436
-0.4745,0.152,1.435
-0.471,0.153,1.433
-0.469,0.156,1.434
-0.47,0.157,1.435
-0.468,0.1565,1.435
-0.467,0.16,1.436
-0.4655,0.162,1.435
-0.4645,0.165,1.435
-0.4665,0.1665,1.4355
-0.465,0.167,1.4345
-0.4655,0.169,1.435
-0.4665,0.173,1.4375
-0.467,0.1755,1.438
-0.4645,0.175,1.436
-0.4625,0.1785,1.439
-0.4615,0.179,1.44
-0.4575,0.181,1.438
-0.4555,0.182,1.4385
-0.455,0.18,1.439
-0.4535,0.184,1.441
-0.4515,0.1855,1.442
-0.45,0.1865,1.4405
-0.448,0.1885,1.4425
-0.446,0.1905,1.4425
-0.445,0.193,1.4395
-0.4435,0.1945,1.4415
-0.4425,0.197,1.443
-0.44,0.2005,1.441
-0.438,0.2025,1.441
-0.436,0.205,1.4405
-0.434,0.209,1.443
-0.4325,0.2115,1.442
-0.43,0.2145,1.441
-0.429,0.217,1.4425
-0.4275,0.218,1.4435
-0.4245,0.221,1.4455
-0.4215,0.226,1.446
-0.419,0.2275,1.446
-0.4185,0.2275,1.446
-0.415,0.2335,1.4475
-0.4125,0.2375,1.448
-0.409,0.242,1.4475
-0.405,0.2465,1.4495
-0.402,0.25,1.45
-0.3965,0.2555,1.4505
-0.391,0.2615,1.4515
-0.3885,0.2635,1.453
-0.388,0.2625,1.455
-0.3845,0.2685,1.455
-0.3835,0.273,1.4545
-0.382,0.2745,1.457
-0.38,0.28,1.46
-0.3765,0.2845,1.461
-0.371,0.2905,1.461
-0.371,0.2935,1.4615
-0.368,0.3005,1.464
-0.363,0.306,1.4635
-0.362,0.307,1.4615
-0.36,0.3135,1.461
-0.3555,0.3185,1.463
-0.35,0.325,1.4655
-0.3455,0.3305,1.465
-0.342,0.332,1.4665
-0.3375,0.3365,1.467
-0.3315,0.3425,1.4685
-0.3265,0.3465,1.4695
-0.323,0.352,1.47
-0.3205,0.358,1.4725
-0.318,0.363,1.4735
-0.3135,0.3685,1.4745
-0.31,0.373,1.478
-0.3095,0.378,1.48
-0.308,0.384,1.48
-0.306,0.3885,1.4805
-0.3035,0.393,1.481
-0.298,0.396,1.4825
-0.2935,0.4015,1.482
-0.292,0.4055,1.4825
-0.2905,0.4095,1.485
-0.2875,0.4145,1.487
-0.2835,0.4175,1.4885
-0.279,0.4205,1.4875
-0.277,0.4245,1.489
-0.276,0.4285,1.492
-0.2715,0.4315,1.493
-0.267,0.435,1.492
-0.265,0.437,1.4935
-0.263,0.439,1.494
-0.2615,0.445,1.493
-0.2615,0.446,1.495
-0.262,0.4465,1.496
-0.261,0.4485,1.4965
-0.2595,0.4495,1.4985
-0.258,0.453,1.497
-0.258,0.4555,1.4975
-0.2565,0.459,1.5005
-0.255,0.4615,1.5
-0.254,0.4585,1.501
-0.252,0.458,1.5015
-0.251,0.4615,1.501
-0.2485,0.463,1.501
-0.247,0.4655,1.502
-0.243,0.467,1.5025
-0.242,0.468,1.5025
-0.2405,0.4695,1.5025
-0.236,0.47,1.502
-0.235,0.4725,1.501
-0.237,0.4725,1.5005
-0.238,0.468,1.5045
-0.2355,0.466,1.505
-0.237,0.4675,1.5055
-0.2385,0.467,1.507
-0.2425,0.463,1.5045
-0.2475,0.4605,1.505
-0.2495,0.457,1.5045
-0.25,0.4535,1.507
-0.2515,0.453,1.506
-0.256,0.449,1.504
-0.2605,0.443,1.5045
-0.2615,0.44,1.5015
-0.2635,0.4365,1.4995
-0.2685,0.432,1.498
-0.273,0.425,1.4965
-0.278,0.4195,1.497
-0.2815,0.4145,1.4975
-0.282,0.4095,1.497
-0.284,0.403,1.495
-0.2905,0.397,1.4935
-0.2985,0.3915,1.493
-0.304,0.382,1.492
-0.31,0.3765,1.4925
-0.316,0.368,1.4915
-0.3225,0.361,1.4895
-0.3305,0.3545,1.487
-0.335,0.3455,1.485
-0.3415,0.3385,1.485
-0.3485,0.3305,1.483
-0.3525,0.3245,1.4815
-0.357,0.3175,1.479
-0.3625,0.3085,1.476
-0.3675,0.3015,1.4755
-0.3695,0.294,1.473
-0.374,0.286,1.4715
-0.3805,0.279,1.469
-0.387,0.272,1.467
-0.3915,0.265,1.4675
-0.3975,0.2555,1.4645
-0.402,0.2495,1.464
-0.406,0.244,1.462
-0.413,0.237,1.4605
-0.4185,0.2315,1.4585
-0.4255,0.2255,1.4565
-0.4295,0.2205,1.456
-0.4335,0.212,1.4545
-0.439,0.206,1.455
-0.441,0.2015,1.453
-0.445,0.195,1.4495
-0.45,0.1895,1.4485
-0.455,0.184,1.446
-0.459,0.1805,1.4455
-0.461,0.175,1.445
-0.465,0.168,1.4425
-0.4675,0.162,1.4405
-0.466,0.1575,1.439
-0.4665,0.154,1.4375
-0.4705,0.1515,1.4365
-0.474,0.147,1.4355
-0.474,0.144,1.435
-0.4785,0.1405,1.434
-0.4815,0.1355,1.4325
-0.4845,0.133,1.4315
-0.4875,0.1315,1.4315
-0.4885,0.132,1.428
-0.4925,0.1275,1.426
-0.4925,0.122,1.425
-0.493,0.1195,1.4255
-0.4945,0.1185,1.425
-0.4945,0.117,1.4225
-0.4935,0.1155,1.4215
-0.4945,0.114,1.4185
-0.4975,0.1095,1.42
-0.4935,0.1075,1.418
-0.4925,0.1075,1.417
-0.4925,0.1065,1.4185
-0.4895,0.105,1.417
-0.491,0.103,1.4175
-0.4905,0.1035,1.413
-0.4915,0.104,1.4135
-0.4945,0.0985,1.417
-0.495,0.097,1.416
-0.4965,0.0985,1.4145
-0.499,0.097,1.415
-0.501,0.0955,1.414
-0.5005,0.095,1.4115
-0.5025,0.095,1.4115
-0.505,0.0935,1.412
-0.507,0.0915,1.411
-0.5075,0.092,1.412
-0.5055,0.091,1.4125
-0.5045,0.092,1.4125
-0.5045,0.0905,1.4105
-0.502,0.0885,1.409
-0.501,0.09,1.4105
-0.5,0.0885,1.411
-0.4985,0.0895,1.4115
-0.4995,0.0895,1.4065
-0.503,0.087,1.4035
-0.5045,0.085,1.4055
-0.5055,0.0865,1.4055
-0.509,0.086,1.4055
-0.509,0.083,1.4055
-0.5105,0.084,1.406
-0.51,0.0855,1.4075
-0.509,0.087,1.4055
-0.512,0.086,1.406
-0.5115,0.0855,1.4085
-0.5115,0.0845,1.4065
-0.5115,0.0845,1.4085
-0.5125,0.0855,1.408
-0.513,0.0865,1.4065
-0.511,0.0875,1.4085
-0.51,0.0855,1.407
-0.508,0.085,1.4075
-0.5075,0.0825,1.406
-0.5045,0.082,1.4035
-0.5045,0.0835,1.405
-0.507,0.08,1.407
-0.508,0.0795,1.406
-0.508,0.0785,1.4045
-0.5085,0.0775,1.4035
-0.5105,0.0785,1.4035
-0.511,0.0795,1.407
-0.51,0.08,1.4065
-0.507,0.079,1.4055
-0.5075,0.079,1.408
-0.508,0.079,1.409
-0.507,0.0785,1.4075
-0.5075,0.0765,1.4065
-0.508,0.078,1.4075
-0.508,0.0795,1.409
-0.5095,0.0795,1.406
-0.506,0.0795,1.4055
-0.5045,0.0785,1.4075
-0.5045,0.0795,1.407
-0.5045,0.081,1.4065
-0.506,0.0835,1.405
-0.508,0.0775,1.4055
-0.5085,0.0735,1.4045
-0.5085,0.0765,1.4055
-0.5115,0.0785,1.406
-0.507,0.082,1.4035
-0.5055,0.078,1.4095
-0.507,0.0765,1.4105
-0.504,0.0785,1.4085
-0.5095,0.079,1.408
-0.514,0.08,1.407
-0.5115,0.08,1.408
-0.51,0.0815,1.407
-0.5105,0.079,1.404
-0.51,0.0795,1.4035
-0.506,0.081,1.404
-0.5035,0.081,1.4035
-0.503,0.0835,1.4035
-0.5045,0.0825,1.4025
-0.503,0.0835,1.4035
-0.5005,0.0855,1.403
-0.5015,0.085,1.401
-0.501,0.087,1.403
-0.5015,0.084,1.4035
-0.5005,0.082,1.4045
-0.502,0.0835,1.4075
-0.5045,0.0845,1.4075
-0.5035,0.0865,1.4055
-0.5035,0.0865,1.4065
-0.5015,0.085,1.4065
-0.5035,0.0845,1.4065
-0.5075,0.0845,1.4065
-0.508,0.083,1.4045
-0.507,0.0845,1.404
-0.5045,0.087,1.4045
-0.5045,0.086,1.4035
-0.5015,0.087,1.4035
-0.4985,0.0885,1.4035
-0.497,0.0885,1.4025
-0.4985,0.088,1.402
-0.495,0.0885,1.3995
-0.4945,0.0885,1.401
-0.494,0.0895,1.4025
-0.4925,0.087,1.401
-0.4965,0.0875,1.4015
-0.4985,0.09,1.402
-0.4975,0.0895,1.4005
-0.4975,0.088,1.4015
-0.5,0.0865,1.404
-0.5015,0.087,1.4025
-0.5,0.087,1.403
-0.498,0.091,1.403
-0.4965,0.09,1.4025
-0.4945,0.087,1.4035
-0.495,0.0885,1.4025
-0.4945,0.09,1.401
-0.495,0.089,1.4015
-0.4965,0.089,1.4035
-0.498,0.0895,1.4015
-0.5,0.088,1.4015
-0.497,0.0885,1.4035
-0.4955,0.087,1.403
-0.495,0.0875,1.4025
-0.4935,0.088,1.4015
-0.496,0.0885,1.4015
-0.4975,0.0905,1.4015
-0.499,0.0915,1.402
-0.501,0.093,1.403
-0.501,0.094,1.4025
-0.5015,0.092,1.403
-0.5,0.0905,1.4035
-0.498,0.091,1.4035
-0.4965,0.0915,1.403
-0.496,0.092,1.3995
-0.496,0.0915,1.397
-0.4955,0.089,1.3975
-0.4975,0.088,1.3985
-0.4965,0.0895,1.4005
-0.4925,0.089,1.398
-0.4875,0.09,1.396
-0.4875,0.0915,1.395
-0.491,0.091,1.3965
-0.49,0.095,1.3975
-0.4895,0.094,1.3965
-0.491,0.087,1.397
-0.4935,0.089,1.3985
-0.4985,0.0905,1.398
-0.4995,0.09,1.398
-0.497,0.0925,1.398
-0.497,0.0945,1.4005
-0.496,0.0945,1.402
-0.4975,0.0925,1.3995
-0.497,0.0925,1.401
-0.4935,0.092,1.402
-0.4975,0.093,1.4005
-0.5005,0.0915,1.4
-0.501,0.09,1.401
-0.502,0.091,1.4025
-0.498,0.09,1.402
-0.4965,0.0915,1.402
-0.4955,0.0915,1.403
-0.49,0.092,1.403
-0.4875,0.0935,1.402
-0.491,0.0925,1.3975
-0.494,0.092,1.396
-0.5005,0.0895,1.397
-0.5015,0.086,1.3995
-0.4985,0.085,1.3975
-0.501,0.086,1.3935
-0.4995,0.084,1.3965
-0.4975,0.0825,1.3965
-0.494,0.085,1.396
-0.4915,0.0855,1.396
-0.495,0.0845,1.3955
-0.4955,0.0825,1.3965
-0.498,0.081,1.3925
-0.501,0.0805,1.3935
-0.497,0.08,1.3955
-0.494,0.079,1.3915
-0.4965,0.076,1.3915
-0.4975,0.0745,1.3915
-0.4995,0.0745,1.391
-0.502,0.0745,1.389
-0.502,0.0725,1.3885
-0.4995,0.0725,1.3895
-0.501,0.0715,1.389
-0.5045,0.071,1.3875
-0.506,0.0695,1.3855
-0.508,0.068,1.3855
-0.5075,0.068,1.386
-0.507,0.067,1.386
-0.508,0.067,1.3865
-0.508,0.064,1.3855
-0.504,0.064,1.385
-0.501,0.066,1.386
-0.501,0.066,1.385
-0.503,0.063,1.384
-0.5035,0.0605,1.381
-0.501,0.0625,1.382
-0.501,0.0645,1.384
-0.501,0.065,1.38
-0.5035,0.063,1.381
-0.5035,0.063,1.3815
-0.5015,0.065,1.381
-0.5005,0.0635,1.382
-0.504,0.0635,1.383
-0.508,0.063,1.383
-0.5115,0.059,1.382
-0.5115,0.059,1.3805
-0.504,0.0625,1.3825
-0.5,0.0625,1.3835
-0.5,0.0635,1.3815
-0.506,0.0615,1.381
-0.5105,0.06,1.3775
-0.508,0.0615,1.379
-0.508,0.058,1.3785
-0.508,0.0575,1.377
-0.5065,0.0575,1.381
-0.508,0.0575,1.3785
-0.507,0.059,1.376
-0.504,0.0575,1.375
-0.505,0.057,1.375
-0.5045,0.055,1.3765
-0.503,0.056,1.376
-0.5035,0.058,1.3775
-0.5065,0.055,1.377
-0.5105,0.056,1.3775
-0.5075,0.0575,1.3765
-0.5015,0.061,1.3765
-0.502,0.0585,1.378
-0.5105,0.0535,1.3785
-0.515,0.0555,1.376
-0.5165,0.0575,1.3755
-0.516,0.0595,1.376
-0.512,0.059,1.377
-0.5125,0.0585,1.376
-0.51,0.057,1.3765
-0.508,0.059,1.377
-0.508,0.062,1.3745
-0.5085,0.062,1.3755
-0.509,0.0615,1.373
-0.5055,0.061,1.374
-0.505,0.0625,1.3765
-0.511,0.0605,1.373
-0.514,0.0565,1.3715
-0.5125,0.058,1.374
-0.511,0.0605,1.374
-0.5095,0.0595,1.3735
-0.514,0.061,1.374
-0.513,0.0625,1.375
-0.5095,0.0625,1.375
-0.5065,0.064,1.373
-0.5085,0.06,1.3755
-0.513,0.057,1.3745
-0.511,0.059,1.3735
-0.5115,0.057,1.3715
-0.5085,0.0565,1.371
-0.507,0.056,1.3715
-0.506,0.057,1.3685
-0.5095,0.0585,1.3685
-0.5105,0.0575,1.367
-0.506,0.057,1.369
-0.5075,0.0565,1.3695
-0.51,0.056,1.3685
-0.5095,0.058,1.37
-0.5075,0.0575,1.3705
-0.509,0.059,1.373
-0.5075,0.061,1.3735
-0.509,0.057,1.373
-0.512,0.0565,1.3735
-0.5135,0.0565,1.373
-0.5105,0.057,1.3745
-0.505,0.0585,1.3745
-0.5065,0.058,1.3715
-0.51,0.0575,1.37
-0.5075,0.0575,1.368
-0.507,0.056,1.365
-0.5075,0.058,1.3665
-0.504,0.062,1.367
-0.507,0.0595,1.3655
-0.5075,0.059,1.367
-0.504,0.0585,1.369
-0.5045,0.057,1.3695
-0.5075,0.058,1.3695
-0.5115,0.057,1.3695
-0.515,0.0565,1.37
-0.5135,0.0575,1.3695
-0.5125,0.056,1.368
-0.5135,0.0555,1.3675
-0.5135,0.0555,1.3695
-0.514,0.0575,1.3705
-0.51,0.0595,1.37
-0.51,0.059,1.372
-0.514,0.057,1.373
-0.515,0.0585,1.3735
-0.512,0.0595,1.372
-0.512,0.057,1.3695
-0.514,0.057,1.3705
-0.5135,0.0555,1.371
-0.51,0.0575,1.3715
-0.5065,0.0585,1.3695
-0.508,0.0555,1.368
-0.509,0.056,1.367
-0.506,0.0575,1.368
-0.5045,0.0585,1.3695
-0.5065,0.057,1.367
-0.5115,0.056,1.367
-0.5085,0.057,1.3655
-0.5095,0.0555,1.365
-0.51,0.0575,1.3655
-0.505,0.0585,1.366
-0.508,0.058,1.367
-0.5125,0.0575,1.3685
-0.514,0.057,1.3685
-0.5125,0.0565,1.366
-0.511,0.055,1.365
-0.508,0.057,1.3625
-0.507,0.0585,1.3625
-0.5045,0.059,1.3615
-0.505,0.057,1.36
-0.511,0.0525,1.3625
-0.511,0.0535,1.365
-0.516,0.055,1.3635
-0.5155,0.0555,1.363
-0.5105,0.0585,1.364
-0.5145,0.0595,1.365
-0.5155,0.0555,1.3665
-0.518,0.0555,1.3675
-0.5175,0.0585,1.367
-0.515,0.0605,1.3655
-0.515,0.0605,1.366
-0.514,0.06,1.3645
-0.5135,0.0585,1.364
-0.512,0.057,1.3635
-0.51,0.058,1.362
-0.51,0.058,1.361
-0.511,0.0595,1.362
-0.5115,0.062,1.3645
-0.5095,0.061,1.3645
-0.507,0.0615,1.364
-0.5055,0.0615,1.363
-0.5095,0.0625,1.365
-0.5115,0.0615,1.366
-0.5125,0.059,1.363
-0.513,0.056,1.364
-0.5115,0.0585,1.366
-0.5115,0.0605,1.3645
-0.516,0.055,1.3645
-0.5195,0.056,1.3645
-0.519,0.0565,1.364
-0.5185,0.054,1.3625
-0.5205,0.0545,1.362
-0.5215,0.056,1.3635
-0.5205,0.0565,1.3635
-0.5175,0.0545,1.3645
-0.5135,0.053,1.365
-0.5145,0.053,1.366
-0.5135,0.0525,1.3675
-0.511,0.0525,1.367
-0.5105,0.052,1.3665
-0.5085,0.056,1.3665
-0.5085,0.057,1.3675
-0.509,0.0555,1.366
-0.5115,0.054,1.365
-0.511,0.0535,1.3645
-0.5115,0.056,1.3625
-0.5125,0.057,1.3625
-0.513,0.057,1.361
-0.5175,0.0575,1.3595
-0.521,0.055,1.3605
-0.524,0.0545,1.359
-0.5205,0.055,1.3585
-0.514,0.054,1.3615
-0.514,0.057,1.3625
-0.5165,0.0585,1.362
-0.515,0.0565,1.36
-0.512,0.0555,1.3605
-0.509,0.059,1.36
-0.5095,0.061,1.3575
-0.5075,0.06,1.3585
-0.5055,0.063,1.3585
-0.508,0.066,1.358
-0.5065,0.068,1.3585
-0.5045,0.066,1.3585
-0.505,0.062,1.357
-0.508,0.0625,1.356
-0.5065,0.0635,1.357
-0.5035,0.0635,1.3575
-0.502,0.067,1.3585
-0.499,0.0685,1.3595
-0.4975,0.0705,1.3625
-0.494,0.0715,1.3615
-0.4985,0.0655,1.3605
-0.4985,0.0645,1.363
-0.493,0.071,1.364
-0.49,0.0735,1.364
-0.487,0.073,1.366
-0.4875,0.0755,1.3675
-0.485,0.0795,1.367
-0.4795,0.08,1.366
-0.4765,0.08,1.3655
-0.4745,0.083,1.367
-0.474,0.0845,1.3655
-0.473,0.082,1.3635
-0.473,0.0825,1.3635
-0.474,0.082,1.365
-0.474,0.081,1.366
-0.4735,0.081,1.3655
-0.475,0.083,1.367
-0.48,0.084,1.368
-0.48,0.0835,1.37
-0.482,0.0865,1.37
-0.4845,0.0875,1.3715
-0.4815,0.088,1.372
-0.481,0.084,1.3705
-0.476,0.0835,1.3685
-0.468,0.0825,1.3635
-0.4745,0.079,1.3595
-0.4795,0.078,1.355
-0.479,0.076,1.352
-0.482,0.0765,1.3485
-0.4845,0.074,1.345
-0.4825,0.073,1.3425
-0.4785,0.073,1.3405
-0.4745,0.0755,1.34
-0.4715,0.08,1.3385
-0.4705,0.083,1.3365
-0.4685,0.0825,1.3315
-0.468,0.081,1.3315
-0.4705,0.081,1.332
-0.472,0.083,1.3295
-0.4695,0.085,1.328
-0.4625,0.0875,1.3285
-0.462,0.088,1.3295
-0.464,0.0885,1.329
-0.46,0.0915,1.3305
-0.461,0.09,1.331
-0.4615,0.086,1.3325
-0.456,0.086,1.333
-0.4515,0.088,1.336
-0.4505,0.093,1.3395
-0.4465,0.0985,1.341
-0.439,0.1035,1.348
-0.436,0.109,1.3485
-0.434,0.109,1.3495
-0.431,0.107,1.3495
-0.429,0.11,1.3455
-0.43,0.1145,1.3455
-0.4345,0.1135,1.345
-0.436,0.1125,1.345
-0.441,0.1105,1.345
-0.4465,0.1075,1.3445
-0.4465,0.107,1.3435
-0.447,0.104,1.3415
-0.4465,0.1015,1.3405
-0.44,0.1025,1.338
-0.4435,0.106,1.34
-0.454,0.1045,1.343
-0.4585,0.0995,1.3415
-0.4605,0.099,1.3395
-0.4605,0.098,1.3435
-0.465,0.0945,1.3505
-0.475,0.091,1.3515
-0.4815,0.088,1.352
-0.4885,0.087,1.356
-0.4965,0.084,1.3565
-0.497,0.084,1.3555
-0.5005,0.087,1.3575
-0.504,0.082,1.358
-0.5055,0.079,1.3585
-0.508,0.0775,1.3585
-0.508,0.074,1.3575
-0.5045,0.0755,1.358
-0.5005,0.0765,1.3545
-0.502,0.0735,1.3515
-0.507,0.0675,1.3495
-0.508,0.066,1.3475
-0.51,0.062,1.3465
-0.511,0.063,1.345
-0.515,0.06,1.345
-0.5205,0.0525,1.3465
-0.5215,0.054,1.3445
-0.524,0.0535,1.3425
-0.5255,0.053,1.342
-0.5275,0.0515,1.3425
-0.5315,0.0515,1.343
-0.536,0.0515,1.3425
-0.5365,0.0495,1.3425
-0.537,0.048,1.343
-0.539,0.0495,1.3455
-0.535,0.049,1.346
-0.5325,0.0475,1.3455
-0.5335,0.05,1.3435
-0.534,0.0505,1.343
-0.5325,0.051,1.3435
-0.532,0.0515,1.3435
-0.5335,0.052,1.347
-0.5355,0.0525,1.346
-0.5365,0.0535,1.345
-0.5315,0.0565,1.3435
-0.5275,0.06,1.342
-0.5285,0.061,1.3445
-0.5305,0.06,1.343
-0.5275,0.0585,1.344
-0.527,0.058,1.346
-0.5315,0.058,1.347
-0.5315,0.0555,1.348
-0.5285,0.056,1.346
-0.5295,0.057,1.3475
-0.5345,0.0555,1.35
-0.531,0.0575,1.3535
-0.5265,0.062,1.3545
-0.533,0.0605,1.349
-0.5335,0.058,1.3475
-0.529,0.0605,1.347
-0.528,0.061,1.345
-0.5215,0.062,1.348
-0.519,0.0675,1.3505
-0.5215,0.0735,1.3525
-0.522,0.0785,1.357
-0.518,0.084,1.364
-0.5145,0.09,1.373
-0.518,0.0985,1.379
-0.516,0.1085,1.3865
-0.518,0.1135,1.3955
-0.52,0.119,1.4055
-0.514,0.1315,1.4165
-0.5115,0.147,1.428
-0.5135,0.154,1.4405
-0.508,0.1685,1.4525
-0.4815,0.21,1.4625
-0.4505,0.252,1.4735
-0.4205,0.2885,1.4835
-0.379,0.3505,1.494
-0.3495,0.408,1.5085
-0.318,0.4645,1.5165
-0.271,0.531,1.526
-0.2255,0.599,1.54
-0.1735,0.6775,1.548
-0.13,0.7345,1.551
-0.099,0.7785,1.5565
-0.0755,0.808,1.5605
-0.06,0.8235,1.5565
-0.0435,0.8455,1.557
-0.0315,0.868,1.557
-0.0305,0.8905,1.549
-0.033,0.902,1.54
-0.0275,0.92,1.5335
-0.0245,0.9385,1.528
-0.0335,0.9535,1.5175
-0.051,0.952,1.5045
-0.0735,0.9305,1.4895
-0.084,0.9105,1.471
-0.0985,0.8765,1.4585
-0.129,0.827,1.453
-0.192,0.741,1.438
-0.2785,0.627,1.4155
-0.336,0.53,1.373
-0.3735,0.44,1.3135
-0.4175,0.342,1.2715
-0.465,0.2375,1.2385
-0.495,0.142,1.2035
-0.5245,0.0545,1.172
-0.56,-0.057,1.1485
-0.602,-0.1665,1.1385
-0.644,-0.2435,1.136
-0.6625,-0.2855,1.134
-0.666,-0.2945,1.1345
-0.6675,-0.2805,1.1435
-0.668,-0.2575,1.1515
-0.655,-0.2345,1.1625
-0.6395,-0.2065,1.177
-0.6305,-0.1875,1.1855
-0.6225,-0.1715,1.1935
-0.618,-0.1515,1.2065
-0.6155,-0.1355,1.2225
-0.6115,-0.1185,1.237
-0.601,-0.098,1.252
-0.587,-0.078,1.259
-0.5835,-0.0665,1.266
-0.581,-0.054,1.2745
-0.572,-0.036,1.281
-0.564,-0.0195,1.29
-0.552,0.0,1.297
-0.5425,0.02,1.3035
-0.5415,0.0305,1.3085
-0.5395,0.039,1.3145
-0.5405,0.0495,1.3195
-0.536,0.055,1.3225
-0.525,0.062,1.3275
-0.5245,0.067,1.3285
-0.5285,0.068,1.329
-0.5285,0.07,1.329
-0.5225,0.075,1.331
-0.515,0.078,1.334
-0.511,0.0785,1.3315
-0.5115,0.0795,1.332
-0.511,0.081,1.3345
-0.513,0.082,1.336
-0.5125,0.0815,1.3355
-0.5035,0.084,1.335
-0.5055,0.086,1.3375
-0.513,0.082,1.338
-0.513,0.078,1.3375
-0.509,0.0835,1.337
-0.51,0.087,1.3395
-0.515,0.0835,1.344
-0.516,0.0865,1.341
-0.5175,0.0865,1.3405
-0.515,0.086,1.3405
-0.515,0.087,1.3395
-0.516,0.085,1.3415
-0.518,0.0845,1.342
-0.52,0.0825,1.34
-0.5185,0.0855,1.3405
-0.512,0.0885,1.343
-0.507,0.087,1.3425
-0.5035,0.087,1.3415
-0.501,0.0905,1.3415
-0.506,0.0935,1.3415
-0.5065,0.093,1.343
-0.5025,0.0975,1.3415
-0.4955,0.101,1.343
-0.4945,0.0995,1.3435
-0.5,0.097,1.3435
-0.5015,0.099,1.3435
-0.5045,0.101,1.3425
-0.5055,0.101,1.3465
-0.507,0.101,1.3465
-0.5075,0.1025,1.3485
-0.5065,0.104,1.3485
-0.5055,0.104,1.3455
-0.502,0.1055,1.3485
-0.5015,0.104,1.3475
-0.5045,0.106,1.3455
-0.5045,0.1075,1.3455
-0.5,0.1085,1.347
-0.4965,0.1105,1.3485
-0.498,0.1125,1.348
-0.498,0.112,1.3475
-0.4955,0.1125,1.349
-0.492,0.116,1.349
-0.494,0.119,1.3465
-0.4985,0.12,1.3465
-0.4995,0.1175,1.3445
-0.499,0.118,1.3455
-0.496,0.117,1.344
-0.4945,0.118,1.343
-0.492,0.1215,1.3485
-0.49,0.1215,1.3505
-0.49,0.1205,1.349
-0.4875,0.121,1.3485
-0.485,0.1225,1.35
-0.485,0.1255,1.3505
-0.4845,0.1275,1.3525
-0.4905,0.123,1.351
-0.495,0.119,1.3475
-0.4905,0.12,1.348
-0.484,0.128,1.3475
-0.481,0.1305,1.3475
-0.4795,0.13,1.347
-0.476,0.1305,1.345
-0.4825,0.129,1.3455
-0.4815,0.1345,1.344
-0.4785,0.134,1.3435
-0.4865,0.131,1.345
-0.4845,0.1355,1.346
-0.4845,0.138,1.3475
-0.4835,0.137,1.346
-0.4805,0.138,1.3445
-0.48,0.142,1.3435
-0.479,0.1395,1.3425
-0.4795,0.1385,1.3435
-0.4765,0.141,1.3445
-0.477,0.1415,1.3455
-0.4755,0.1425,1.345
-0.47,0.144,1.3465
-0.467,0.148,1.344
-0.464,0.148,1.342
-0.464,0.148,1.3425
-0.4665,0.15,1.342
-0.467,0.151,1.342
-0.467,0.1535,1.3415
-0.4635,0.1535,1.3435
-0.4595,0.1555,1.3445
-0.46,0.1575,1.343
-0.4615,0.1575,1.3425
-0.4605,0.1595,1.343
-0.463,0.162,1.3425
-0.4635,0.1635,1.344
-0.463,0.1675,1.3465
-0.464,0.1715,1.3455
-0.4585,0.1715,1.345
-0.456,0.1705,1.346
-0.457,0.1715,1.3475
-0.4545,0.175,1.3465
-0.4495,0.18,1.3465
-0.4455,0.183,1.346
-0.445,0.1795,1.3455
-0.445,0.179,1.345
-0.441,0.187,1.3455
-0.439,0.191,1.3475
-0.4415,0.1905,1.349
-0.4405,0.194,1.3475
-0.4315,0.2,1.3475
-0.426,0.204,1.349
-0.428,0.206,1.3475
-0.4285,0.205,1.3465
-0.433,0.2035,1.347
-0.438,0.204,1.3485
-0.4385,0.206,1.349
-0.438,0.21,1.3515
-0.435,0.2135,1.352
-0.429,0.2195,1.3525
-0.4235,0.2235,1.352
-0.4225,0.2235,1.3485
-0.421,0.224,1.351
-0.4125,0.2285,1.353
-0.4065,0.236,1.351
-0.4095,0.237,1.35
-0.4095,0.2365,1.35
-0.4055,0.242,1.3515
-0.4055,0.245,1.3545
-0.401,0.248,1.3575
-0.394,0.2555,1.36
-0.3945,0.261,1.361
-0.395,0.2595,1.359
-0.392,0.261,1.3585
-0.389,0.266,1.359
-0.386,0.269,1.3615
-0.3825,0.275,1.3635
-0.379,0.2805,1.3625
-0.3775,0.2825,1.3635
-0.3785,0.2865,1.367
-0.3745,0.289,1.366
-0.3705,0.293,1.3645
-0.366,0.299,1.3675
-0.361,0.305,1.369
-0.361,0.3105,1.3705
-0.355,0.3165,1.37
-0.348,0.322,1.37
-0.35,0.3225,1.3695
-0.3495,0.3265,1.369
-0.344,0.3345,1.371
-0.342,0.3415,1.372
-0.3425,0.3445,1.374
-0.341,0.3485,1.375
-0.3375,0.3545,1.3755
-0.3335,0.3575,1.3775
-0.3305,0.3615,1.3775
-0.33,0.364,1.38
-0.323,0.37,1.381
-0.3175,0.374,1.3815
-0.3185,0.3775,1.382
-0.3155,0.383,1.3805
-0.308,0.3875,1.3805
-0.2995,0.395,1.3845
-0.2915,0.4015,1.39
-0.291,0.405,1.3905
-0.2935,0.4085,1.386
-0.289,0.412,1.3875
-0.283,0.418,1.3925
-0.277,0.4255,1.391
-0.274,0.43,1.3895
-0.27,0.432,1.3905
-0.263,0.4365,1.391
-0.2615,0.442,1.39
-0.26,0.4445,1.3925
-0.2615,0.4465,1.397
-0.2585,0.448,1.398
-0.255,0.4485,1.3985
-0.255,0.45,1.4
-0.2505,0.4535,1.3995
-0.2465,0.457,1.399
-0.2495,0.459,1.401
-0.254,0.46,1.401
-0.2525,0.463,1.4015
-0.248,0.469,1.404
-0.2405,0.4765,1.4055
-0.2345,0.4755,1.405
-0.2355,0.4715,1.4045
-0.234,0.475,1.4045
-0.232,0.4765,1.407
-0.232,0.4785,1.41
-0.2385,0.479,1.4105
-0.245,0.4795,1.4105
-0.244,0.4805,1.41
-0.245,0.4825,1.409
-0.2395,0.485,1.41
-0.2365,0.484,1.411
-0.238,0.4865,1.413
-0.2375,0.487,1.413
-0.239,0.4845,1.414
-0.2365,0.481,1.4175
-0.234,0.482,1.417
-0.2345,0.4835,1.413
-0.237,0.481,1.415
-0.2385,0.481,1.4155
-0.238,0.4775,1.4135
-0.2415,0.4755,1.413
-0.239,0.473,1.41
-0.236,0.472,1.4105
-0.2445,0.4725,1.411
-0.2555,0.463,1.4105
-0.2605,0.458,1.409
-0.2635,0.456,1.4095
-0.271,0.4495,1.4095
-0.273,0.441,1.4055
-0.2715,0.433,1.4065
-0.278,0.426,1.405
-0.2875,0.4215,1.4015
-0.2895,0.417,1.4005
-0.291,0.408,1.3995
-0.2965,0.399,1.3985
-0.303,0.3915,1.397
-0.3115,0.383,1.3945
-0.32,0.3755,1.394
-0.3225,0.3685,1.395
-0.326,0.361,1.395
-0.3285,0.3575,1.392
-0.334,0.351,1.3895
-0.3425,0.344,1.3895
-0.344,0.336,1.3915
-0.351,0.3265,1.388
-0.364,0.3205,1.385
-0.372,0.312,1.3875
-0.3725,0.305,1.3835
-0.373,0.2995,1.3815
-0.3795,0.2965,1.3805
-0.3875,0.289,1.3795
-0.3935,0.2805,1.382
-0.3975,0.2755,1.3795
-0.4025,0.268,1.3765
-0.4085,0.26,1.374
-0.4145,0.253,1.373
-0.415,0.247,1.373
-0.4145,0.245,1.3705
-0.4205,0.239,1.367
-0.427,0.231,1.3645
-0.4295,0.2275,1.3605
-0.431,0.2235,1.3565
-0.435,0.2175,1.357
-0.4355,0.2145,1.3555
-0.434,0.211,1.3535
-0.444,0.2015,1.351
-0.4525,0.198,1.351
-0.455,0.194,1.3495
-0.456,0.1925,1.3485
-0.4485,0.194,1.349
-0.4485,0.1845,1.3455
-0.4555,0.1795,1.3405
-0.46,0.18,1.3395
-0.466,0.1745,1.3415
-0.473,0.17,1.3395
-0.4735,0.1665,1.3375
-0.4675,0.1655,1.3355
-0.468,0.1615,1.336
-0.4705,0.1555,1.3355
-0.4695,0.1535,1.3345
-0.4715,0.154,1.334
-0.473,0.151,1.3315
-0.479,0.147,1.332
-0.4855,0.1465,1.3315
-0.484,0.1455,1.3315
-0.48,0.148,1.3325
-0.4785,0.149,1.329
-0.4805,0.1495,1.3265
-0.4815,0.1485,1.327
-0.4845,0.1455,1.3265
-0.4875,0.1435,1.327
-0.4865,0.141,1.3255
-0.4825,0.141,1.3245
-0.482,0.1405,1.3225
-0.491,0.1345,1.319
-0.4945,0.1315,1.3215
-0.488,0.134,1.3205
-0.485,0.1355,1.323
-0.4825,0.1355,1.324
-0.477,0.138,1.3225
-0.4805,0.141,1.324
-0.49,0.139,1.3235
-0.49,0.136,1.325
-0.487,0.1335,1.3235
-0.4925,0.131,1.323
-0.497,0.1325,1.322
-0.4975,0.1365,1.3215
-0.5005,0.133,1.3235
-0.499,0.1255,1.321
-0.49,0.128,1.318
-0.485,0.1305,1.321
-0.4865,0.1315,1.3225
-0.49,0.132,1.321
-0.489,0.13,1.32
-0.4885,0.1305,1.3195
-0.4925,0.1325,1.319
-0.49,0.1345,1.317
-0.4845,0.133,1.3165
-0.487,0.1315,1.3175
-0.4915,0.13,1.315
-0.489,0.1305,1.3135
-0.489,0.132,1.313
-0.491,0.1295,1.313
-0.4915,0.1285,1.3135
-0.492,0.1295,1.3135
-0.4905,0.128,1.315
-0.4915,0.1275,1.316
-0.493,0.1325,1.314
-0.489,0.1355,1.312
-0.4885,0.1335,1.3135
-0.4905,0.1295,1.317
-0.4935,0.1275,1.3165
-0.496,0.1265,1.3145
