i,vx,vy
-2.0885,-0.0775,0.0315
-2.0925,-0.082,0.0305
-2.089,-0.087,0.0325
-2.091,-0.0905,0.037
-2.095,-0.094,0.035
-2.0955,-0.097,0.0325
-2.095,-0.102,0.0335
-2.093,-0.1025,0.036
-2.0955,-0.1035,0.038
-2.099,-0.106,0.037
-2.0945,-0.104,0.0405
-2.0855,-0.101,0.039
-2.088,-0.102,0.0355
-2.0905,-0.1045,0.0305
-2.091,-0.1055,0.025
-2.0975,-0.107,0.0205
-2.097,-0.108,0.0135
-2.0965,-0.1095,0.0125
-2.1035,-0.1115,0.011
-2.104,-0.113,0.009
-2.102,-0.111,0.0075
-2.1055,-0.111,0.003
-2.1005,-0.113,-0.0005
-2.1025,-0.1135,-0.0015
-2.1035,-0.114,-0.005
-2.099,-0.1165,-0.0085
-2.095,-0.117,-0.0095
-2.0915,-0.1165,-0.006
-2.0885,-0.1145,-0.0025
-2.0845,-0.1135,-0.0015
-2.0875,-0.116,-0.003
-2.0885,-0.117,-0.0045
-2.097,-0.1165,0.0015
-2.097,-0.116,0.0035
-2.095,-0.1185,0.002
-2.102,-0.1195,0.0095
-2.104,-0.1225,0.017
-2.117,-0.1255,0.0245
-2.13,-0.1295,0.028
-2.1405,-0.139,0.023
-2.152,-0.1455,0.017
-2.1625,-0.1525,0.012
-2.1625,-0.1555,0.0045
-2.159,-0.1565,0.0
-2.1615,-0.1605,-0.003
-2.16,-0.16,-0.005
-2.16,-0.1615,-0.004
-2.159,-0.164,-0.006
-2.154,-0.163,-0.0075
-2.153,-0.1635,-0.008
-2.156,-0.1665,-0.0095
-2.1575,-0.1705,-0.0125
-2.166,-0.1755,-0.0155
-2.1705,-0.1785,-0.018
-2.17,-0.18,-0.0205
-2.1765,-0.1805,-0.022
-2.173,-0.1795,-0.0225
-2.1665,-0.18,-0.022
-2.1695,-0.1835,-0.0225
-2.17,-0.185,-0.023
-2.1705,-0.186,-0.025
-2.176,-0.1875,-0.0275
-2.1715,-0.186,-0.026
-2.1705,-0.1865,-0.026
-2.1735,-0.1875,-0.024
-2.1715,-0.1855,-0.021
-2.171,-0.1865,-0.0225
-2.172,-0.1855,-0.0225
-2.1725,-0.1855,-0.022
-2.1705,-0.1865,-0.023
-2.1675,-0.186,-0.0245
-2.167,-0.1855,-0.0245
-2.1715,-0.1845,-0.0235
-2.172,-0.1845,-0.0245
-2.1655,-0.1845,-0.0245
-2.167,-0.186,-0.025
-2.165,-0.1845,-0.0225
-2.159,-0.1825,-0.0225
-2.1595,-0.182,-0.0245
-2.16,-0.1825,-0.024
-2.1605,-0.184,-0.023
-2.161,-0.1845,-0.0215
-2.1585,-0.184,-0.024
-2.162,-0.1845,-0.022
-2.173,-0.186,-0.0185
-2.1745,-0.186,-0.018
-2.167,-0.1845,-0.0175
-2.1675,-0.1865,-0.02
-2.17,-0.1895,-0.0185
-2.1705,-0.188,-0.0165
-2.17,-0.1885,-0.0145
-2.164,-0.189,-0.013
-2.165,-0.19,-0.0125
-2.167,-0.1915,-0.0125
-2.1665,-0.1925,-0.0135
-2.167,-0.194,-0.0145
-2.165,-0.195,-0.0155
-2.163,-0.1955,-0.0135
-2.164,-0.196,-0.0125
-2.163,-0.1955,-0.013
-2.1645,-0.191,-0.016
-2.175,-0.191,-0.017
-2.1755,-0.193,-0.016
-2.1745,-0.192,-0.015
-2.1775,-0.1915,-0.0125
-2.1715,-0.1885,-0.009
-2.1695,-0.1865,-0.008
-2.173,-0.19,-0.007
-2.1735,-0.1905,-0.0095
-2.176,-0.1905,-0.0095
-2.1755,-0.1915,-0.0075
-2.171,-0.189,-0.0085
-2.169,-0.1875,-0.007
-2.165,-0.1855,-0.009
-2.1625,-0.184,-0.009
-2.1635,-0.1845,-0.01
-2.163,-0.1825,-0.0095
-2.162,-0.182,-0.0095
-2.161,-0.183,-0.0105
-2.16,-0.1805,-0.0095
-2.16,-0.1815,-0.0115
-2.165,-0.185,-0.012
-2.166,-0.1845,-0.0135
-2.167,-0.183,-0.0135
-2.175,-0.183,-0.0115
-2.1745,-0.184,-0.0095
-2.172,-0.183,-0.008
-2.175,-0.183,-0.008
-2.1695,-0.184,-0.0075
-2.169,-0.184,-0.0045
-2.172,-0.183,-0.004
-2.1685,-0.1815,-0.003
-2.1695,-0.1815,-0.003
-2.1675,-0.1805,-0.002
-2.1645,-0.1785,-0.0025
-2.1635,-0.1805,-0.0045
-2.1675,-0.1835,-0.0055
-2.1755,-0.188,-0.0075
-2.1785,-0.1935,-0.008
-2.1855,-0.198,-0.0135
-2.195,-0.2045,-0.0195
-2.2025,-0.2165,-0.024
-2.2115,-0.2345,-0.0325
-2.2145,-0.254,-0.0405
-2.2155,-0.273,-0.0545
-2.2185,-0.294,-0.07
-2.2205,-0.3075,-0.075
-2.2255,-0.3165,-0.079
-2.222,-0.317,-0.085
-2.2195,-0.3185,-0.088
-2.221,-0.319,-0.0875
-2.2105,-0.308,-0.0905
-2.2005,-0.2925,-0.094
-2.1865,-0.264,-0.0935
-2.162,-0.2255,-0.099
-2.137,-0.192,-0.112
-2.119,-0.1545,-0.113
-2.102,-0.112,-0.103
-2.086,-0.0725,-0.086
-2.067,-0.0135,-0.066
-2.033,0.056,-0.0515
-2.01,0.115,-0.0405
-1.9855,0.1705,-0.0275
-1.9515,0.2345,-0.002
-1.9325,0.3015,0.038
-1.898,0.386,0.0955
-1.851,0.486,0.1415
-1.8285,0.5555,0.191
-1.822,0.6105,0.265
-1.802,0.7015,0.3285
-1.7845,0.79,0.4065
-1.7865,0.8315,0.465
-1.792,0.874,0.485
-1.789,0.941,0.5005
-1.7755,1.005,0.5205
-1.7755,1.042,0.525
-1.789,1.0695,0.512
-1.81,1.0855,0.517
-1.8425,1.0335,0.498
-1.8845,0.9465,0.4615
-1.9275,0.859,0.3975
-1.964,0.735,0.2865
-2.005,0.6,0.2195
-2.0685,0.4285,0.1955
-2.143,0.208,0.1775
-2.219,-0.045,0.1665
-2.296,-0.293,0.144
-2.346,-0.4725,0.119
-2.372,-0.587,0.093
-2.3745,-0.6115,0.0605
-2.368,-0.612,0.0255
-2.3655,-0.6305,-0.0115
-2.367,-0.6315,-0.0435
-2.3705,-0.6225,-0.0705
-2.372,-0.617,-0.096
-2.3765,-0.6185,-0.119
-2.377,-0.6115,-0.129
-2.375,-0.588,-0.1195
-2.363,-0.5575,-0.112
-2.3445,-0.5255,-0.1065
-2.334,-0.4935,-0.0945
-2.3275,-0.4685,-0.0805
-2.3115,-0.4395,-0.07
-2.2885,-0.4015,-0.0625
-2.2695,-0.362,-0.054
-2.25,-0.3285,-0.0425
-2.2335,-0.3025,-0.033
-2.221,-0.2805,-0.03
-2.2065,-0.26,-0.029
-2.194,-0.24,-0.028
-2.188,-0.2255,-0.025
-2.1835,-0.2165,-0.0245
-2.1825,-0.2055,-0.018
-2.184,-0.199,-0.0095
-2.175,-0.1915,-0.0015
-2.169,-0.185,0.0065
-2.1665,-0.1835,0.0085
-2.168,-0.1815,0.014
-2.1705,-0.1785,0.022
-2.1645,-0.174,0.027
-2.1585,-0.1705,0.0275
-2.157,-0.168,0.028
-2.1545,-0.1645,0.0315
-2.154,-0.1645,0.0335
-2.1635,-0.1655,0.033
-2.1665,-0.1645,0.032
-2.164,-0.1645,0.031
-2.162,-0.165,0.0285
-2.158,-0.1675,0.026
-2.157,-0.168,0.0265
-2.153,-0.1665,0.0265
-2.1465,-0.166,0.027
-2.147,-0.1685,0.0265
-2.15,-0.17,0.023
-2.146,-0.1695,0.0185
-2.1525,-0.169,0.018
-2.1585,-0.1685,0.0175
-2.158,-0.1685,0.019
-2.1585,-0.1675,0.0195
-2.159,-0.167,0.0195
-2.1635,-0.1655,0.021
-2.1695,-0.163,0.0215
-2.1685,-0.163,0.021
-2.1615,-0.163,0.0215
-2.16,-0.163,0.0225
-2.16,-0.162,0.0235
-2.16,-0.161,0.025
-2.159,-0.1605,0.0245
-2.1565,-0.1605,0.0235
-2.155,-0.16,0.022
-2.153,-0.1575,0.0215
-2.1525,-0.156,0.022
-2.1545,-0.156,0.021
-2.157,-0.157,0.0205
-2.1565,-0.1565,0.02
-2.1595,-0.1555,0.0215
-2.1565,-0.1525,0.023
-2.1515,-0.15,0.023
-2.1545,-0.1505,0.0265
-2.1515,-0.15,0.025
-2.1485,-0.1495,0.0245
-2.1535,-0.1495,0.025
-2.15,-0.1515,0.024
-2.1435,-0.152,0.0265
-2.1445,-0.1515,0.0265
-2.1475,-0.15,0.026
-2.1535,-0.152,0.027
-2.1585,-0.1535,0.0275
-2.16,-0.153,0.0295
-2.156,-0.1515,0.032
-2.152,-0.1495,0.032
-2.1455,-0.147,0.0315
-2.1465,-0.1455,0.0305
-2.149,-0.1455,0.0315
-2.1455,-0.145,0.031
-2.151,-0.144,0.029
-2.156,-0.144,0.027
-2.153,-0.143,0.024
-2.154,-0.1415,0.0235
-2.154,-0.142,0.022
-2.1505,-0.143,0.022
-2.156,-0.142,0.0225
-2.1525,-0.141,0.021
-2.1505,-0.1415,0.022
-2.157,-0.1395,0.023
-2.155,-0.14,0.023
-2.1525,-0.1405,0.025
-2.1545,-0.1405,0.0235
-2.1545,-0.142,0.0225
-2.15,-0.1405,0.023
-2.146,-0.1395,0.023
-2.142,-0.1395,0.0215
-2.1415,-0.1385,0.0215
-2.1425,-0.139,0.023
-2.141,-0.139,0.022
-2.145,-0.1375,0.022
-2.144,-0.138,0.023
-2.142,-0.1355,0.0215
-2.1445,-0.1375,0.0225
-2.1445,-0.1405,0.0245
-2.139,-0.1395,0.0235
-2.136,-0.1395,0.024
-2.1355,-0.138,0.0225
-2.1355,-0.137,0.024
-2.1365,-0.136,0.0255
-2.136,-0.1355,0.0265
-2.1395,-0.1355,0.028
-2.1435,-0.1345,0.027
-2.144,-0.1315,0.027
-2.1415,-0.1305,0.025
-2.14,-0.13,0.0265
-2.1335,-0.1285,0.027
-2.1315,-0.1295,0.0255
-2.135,-0.1295,0.0235
-2.135,-0.1285,0.023
-2.132,-0.1285,0.024
-2.13,-0.1275,0.0235
-2.1255,-0.131,0.026
-2.125,-0.132,0.0275
-2.1315,-0.131,0.0275
-2.1265,-0.133,0.03
-2.1305,-0.1335,0.0265
-2.1405,-0.134,0.024
-2.1395,-0.1335,0.0265
-2.1375,-0.1335,0.028
-2.143,-0.133,0.029
-2.1445,-0.1335,0.0275
-2.139,-0.134,0.0265
-2.137,-0.132,0.0275
-2.134,-0.1325,0.028
-2.133,-0.1315,0.025
-2.1275,-0.131,0.0265
-2.124,-0.1305,0.0265
-2.1195,-0.128,0.0255
-2.1185,-0.1275,0.027
-2.1235,-0.1275,0.024
-2.1205,-0.127,0.023
-2.1145,-0.124,0.024
-2.114,-0.123,0.023
-2.1225,-0.1255,0.0225
-2.1285,-0.125,0.0235
-2.1325,-0.1235,0.0225
-2.132,-0.1225,0.0235
-2.131,-0.123,0.022
-2.1345,-0.1215,0.021
-2.132,-0.1205,0.0265
-2.1255,-0.1195,0.027
-2.122,-0.119,0.0275
-2.122,-0.1185,0.029
-2.1195,-0.117,0.0285
-2.1215,-0.1185,0.029
-2.126,-0.117,0.029
-2.131,-0.116,0.0305
-2.133,-0.1155,0.032
-2.1285,-0.116,0.0295
-2.1275,-0.117,0.027
-2.125,-0.116,0.025
-2.126,-0.1145,0.0255
-2.126,-0.1135,0.025
-2.128,-0.113,0.0255
-2.1305,-0.1105,0.026
-2.1315,-0.11,0.0245
-2.1265,-0.1095,0.0245
-2.1195,-0.107,0.0255
-2.1265,-0.1045,0.0255
-2.126,-0.103,0.026
-2.122,-0.103,0.0285
-2.1225,-0.102,0.028
-2.119,-0.101,0.028
-2.1195,-0.098,0.0275
-2.1185,-0.097,0.026
-2.117,-0.0975,0.026
-2.1205,-0.0965,0.0265
-2.1205,-0.0965,0.026
-2.1195,-0.0975,0.0245
-2.121,-0.099,0.025
-2.1195,-0.097,0.023
-2.1195,-0.096,0.024
-2.119,-0.0955,0.028
-2.1205,-0.0935,0.03
-2.122,-0.0935,0.0325
-2.1165,-0.0935,0.0335
-2.1105,-0.092,0.031
-2.1025,-0.0905,0.0295
-2.1025,-0.0885,0.031
-2.105,-0.088,0.032
-2.107,-0.089,0.031
-2.111,-0.0865,0.033
-2.115,-0.0855,0.034
-2.12,-0.085,0.0325
-2.117,-0.0835,0.035
-2.1065,-0.082,0.036
-2.1005,-0.0805,0.038
-2.0965,-0.0775,0.037
-2.0955,-0.075,0.033
-2.098,-0.076,0.0345
-2.098,-0.0735,0.036
-2.0965,-0.071,0.039
-2.0955,-0.07,0.039
-2.095,-0.069,0.038
-2.097,-0.0675,0.041
-2.0955,-0.069,0.041
-2.0905,-0.0675,0.0395
-2.0875,-0.063,0.0415
-2.088,-0.061,0.0445
-2.0865,-0.059,0.0435
-2.085,-0.059,0.0435
-2.0835,-0.056,0.0465
-2.0805,-0.0525,0.046
-2.08,-0.0505,0.0445
-2.077,-0.05,0.0445
-2.07,-0.0495,0.0455
-2.068,-0.047,0.0465
-2.0695,-0.0445,0.047
-2.0625,-0.041,0.0465
-2.06,-0.0385,0.0465
-2.0635,-0.0365,0.046
-2.063,-0.0345,0.048
-2.059,-0.0325,0.0495
-2.0535,-0.029,0.0505
-2.0545,-0.026,0.0525
-2.056,-0.025,0.051
-2.0475,-0.0205,0.05
-2.04,-0.016,0.054
-2.0415,-0.013,0.054
-2.043,-0.008,0.055
-2.044,-0.0055,0.06
-2.0495,-0.003,0.062
-2.0495,-0.001,0.062
-2.0465,0.0015,0.063
-2.0455,-0.0005,0.0625
-2.0345,0.0015,0.063
-2.0295,0.007,0.0645
-2.0275,0.007,0.0645
-2.023,0.009,0.065
-2.025,0.0095,0.0635
-2.023,0.0125,0.061
-2.0225,0.015,0.062
-2.023,0.015,0.065
-2.0225,0.019,0.0675
-2.0315,0.0215,0.07
-2.039,0.0225,0.0735
-2.0355,0.0245,0.076
-2.033,0.026,0.0765
-2.0325,0.0285,0.076
-2.0275,0.028,0.079
-2.027,0.0285,0.083
-2.0255,0.031,0.0835
-2.019,0.032,0.0845
-2.0155,0.0335,0.0845
-2.017,0.036,0.0865
-2.0135,0.039,0.086
-2.0125,0.0395,0.088
-2.015,0.04,0.0895
-2.016,0.042,0.087
-2.018,0.043,0.087
-2.016,0.045,0.0865
-2.016,0.0475,0.088
-2.0165,0.049,0.0875
-2.017,0.0505,0.088
-2.0245,0.051,0.0895
-2.035,0.051,0.09
-2.0315,0.0525,0.09
-2.0295,0.052,0.089
-2.0345,0.0545,0.092
-2.0285,0.0565,0.0945
-2.0235,0.0575,0.0935
-2.0225,0.0585,0.0905
-2.025,0.0555,0.0915
-2.025,0.0535,0.0925
-2.0235,0.0525,0.0925
-2.0225,0.051,0.0925
-2.0235,0.0495,0.0925
-2.028,0.047,0.091
-2.0305,0.0455,0.0865
-2.037,0.0415,0.086
-2.043,0.0375,0.0835
-2.0465,0.0325,0.084
-2.0515,0.028,0.086
-2.056,0.0215,0.0825
-2.059,0.015,0.082
-2.068,0.01,0.082
-2.0695,0.0035,0.08
-2.0695,-0.002,0.078
-2.08,-0.0075,0.077
-2.085,-0.011,0.0765
-2.088,-0.018,0.073
-2.09,-0.0215,0.0695
-2.0905,-0.0235,0.066
-2.087,-0.0275,0.0615
-2.091,-0.03,0.059
-2.095,-0.0345,0.0555
-2.097,-0.0375,0.052
-2.103,-0.042,0.0485
-2.0985,-0.0475,0.045
-2.0985,-0.051,0.043
-2.102,-0.054,0.041
-2.103,-0.0575,0.0395
-2.1055,-0.0625,0.0385
-2.1065,-0.065,0.0365
-2.1085,-0.07,0.034
-2.117,-0.0755,0.0335
-2.122,-0.0805,0.033
-2.12,-0.0845,0.0325
-2.1235,-0.088,0.031
-2.1245,-0.091,0.033
-2.126,-0.0935,0.034
-2.1255,-0.0975,0.0325
-2.1215,-0.0995,0.03
-2.1225,-0.1015,0.0265
-2.1285,-0.103,0.0285
-2.13,-0.107,0.0265
-2.1315,-0.111,0.0235
-2.1415,-0.1115,0.025
-2.1415,-0.1155,0.023
-2.141,-0.1165,0.02
-2.1425,-0.1175,0.0195
-2.1405,-0.1225,0.0195
-2.1365,-0.126,0.0155
-2.137,-0.1275,0.016
-2.1435,-0.13,0.0175
-2.154,-0.132,0.0155
-2.16,-0.132,0.016
-2.154,-0.134,0.0125
-2.156,-0.1345,0.0125
-2.159,-0.136,0.014
-2.1605,-0.14,0.013
-2.163,-0.142,0.013
-2.161,-0.1435,0.01
-2.159,-0.1445,0.007
-2.1565,-0.1455,0.005
-2.1545,-0.1465,0.006
-2.154,-0.145,0.0065
-2.1575,-0.143,0.0055
-2.154,-0.144,0.005
-2.151,-0.1455,0.003
-2.1535,-0.145,0.0015
-2.151,-0.1435,-0.001
-2.148,-0.144,-0.002
-2.154,-0.144,0.0005
-2.157,-0.1445,0.0
-2.157,-0.1455,-0.0025
-2.1655,-0.144,-0.0025
-2.163,-0.1425,-0.003
-2.16,-0.1435,-0.002
-2.1625,-0.1455,-0.001
-2.1615,-0.146,-0.002
-2.1645,-0.147,-0.003
-2.166,-0.1475,-0.005
-2.16,-0.1485,-0.0075
-2.161,-0.1495,-0.0065
-2.164,-0.15,-0.006
-2.163,-0.152,-0.0045
-2.165,-0.1515,-0.004
-2.162,-0.1525,-0.005
-2.159,-0.153,-0.006
-2.1595,-0.1545,-0.0085
-2.1635,-0.1575,-0.0075
-2.1665,-0.158,-0.0075
-2.1665,-0.1605,-0.006
-2.17,-0.16,-0.0065
-2.1735,-0.1585,-0.0075
-2.178,-0.159,-0.006
-2.176,-0.1565,-0.007
-2.176,-0.158,-0.0055
-2.175,-0.1575,-0.0025
-2.1715,-0.1595,-0.002
-2.17,-0.161,-0.0015
-2.1705,-0.1585,-0.001
-2.173,-0.159,-0.0015
-2.172,-0.1595,-0.0015
-2.1685,-0.158,-0.0035
-2.1675,-0.157,-0.004
-2.172,-0.1555,-0.002
-2.171,-0.1525,-0.0015
-2.172,-0.155,-0.004
-2.1755,-0.1555,-0.0045
-2.1765,-0.1535,-0.0055
-2.177,-0.1535,-0.0055
-2.177,-0.1515,-0.0035
-2.177,-0.1525,-0.006
-2.176,-0.1535,-0.009
-2.176,-0.155,-0.0075
-2.1715,-0.1555,-0.0065
-2.168,-0.1545,-0.0065
-2.168,-0.156,-0.005
-2.169,-0.1575,-0.0075
-2.1685,-0.1575,-0.008
-2.165,-0.159,-0.006
-2.167,-0.1585,-0.0065
-2.1705,-0.158,-0.0055
-2.1705,-0.16,-0.006
-2.174,-0.1615,-0.0055
-2.1785,-0.164,-0.005
-2.177,-0.1625,-0.0045
-2.177,-0.1635,-0.004
-2.1815,-0.166,-0.007
-2.185,-0.165,-0.0075
-2.184,-0.1655,-0.006
-2.185,-0.1665,-0.0045
-2.1865,-0.1685,-0.0045
-2.181,-0.169,-0.004
-2.1775,-0.167,-0.0045
-2.1775,-0.165,-0.003
-2.1785,-0.1645,-0.0035
-2.181,-0.165,-0.0025
-2.178,-0.166,-0.0005
-2.1775,-0.1665,-0.0025
-2.178,-0.1655,-0.002
-2.1755,-0.1675,-0.003
-2.1795,-0.1685,-0.0015
-2.1785,-0.1665,-0.002
-2.1785,-0.166,-0.001
-2.183,-0.1655,-0.0005
-2.1805,-0.166,-0.002
-2.179,-0.1665,-0.001
-2.175,-0.166,-0.0015
-2.1705,-0.165,-0.0015
-2.17,-0.163,0.0015
-2.1705,-0.162,0.0015
-2.175,-0.1635,0.0
-2.1815,-0.168,-0.0015
-2.183,-0.1665,-0.002
-2.1855,-0.167,0.0005
-2.189,-0.17,0.004
-2.1875,-0.167,0.0075
-2.188,-0.167,0.0065
-2.189,-0.1665,0.0075
-2.1875,-0.1635,0.006
-2.1825,-0.1645,0.0025
-2.1805,-0.166,0.0025
-2.18,-0.165,0.0025
-2.182,-0.1645,0.0045
-2.181,-0.1665,0.003
-2.176,-0.1675,0.0
-2.175,-0.17,-0.0015
-2.174,-0.17,-0.0015
-2.1735,-0.17,-0.0015
-2.1725,-0.1715,-0.002
-2.1725,-0.171,0.002
-2.17,-0.1675,0.0005
-2.1715,-0.169,-0.0015
-2.1695,-0.1685,0.0
-2.168,-0.165,-0.001
-2.174,-0.1655,0.001
-2.1745,-0.1655,0.002
-2.175,-0.1655,0.0015
-2.177,-0.167,0.0
-2.1805,-0.1685,0.0
-2.1825,-0.167,0.001
-2.18,-0.1655,0.001
-2.1775,-0.166,0.001
-2.1825,-0.1645,0.0005
-2.186,-0.163,0.001
-2.1805,-0.165,0.0
-2.177,-0.1665,-0.0005
-2.1775,-0.1675,-0.002
-2.178,-0.1665,-0.0025
-2.1755,-0.1655,-0.0015
-2.1735,-0.1685,-0.0005
-2.1735,-0.17,-0.001
-2.182,-0.1705,-0.002
-2.194,-0.171,-0.0005
-2.1945,-0.1725,-0.001
-2.198,-0.174,0.0005
-2.195,-0.1725,0.004
-2.1905,-0.1725,0.001
-2.1915,-0.1715,0.0015
-2.1865,-0.171,0.0045
-2.186,-0.172,0.002
-2.186,-0.169,0.004
-2.1825,-0.17,0.0055
-2.18,-0.1715,0.0035
-2.181,-0.1715,0.0055
-2.18,-0.174,0.004
-2.18,-0.1755,0.0025
-2.184,-0.1765,0.002
-2.19,-0.174,0.003
-2.1925,-0.172,0.0065
-2.194,-0.173,0.008
-2.196,-0.172,0.0075
-2.197,-0.173,0.0045
-2.196,-0.172,0.006
-2.1905,-0.172,0.0065
-2.1965,-0.1715,0.006
-2.1965,-0.1715,0.0095
-2.1905,-0.1725,0.009
-2.191,-0.173,0.0055
-2.191,-0.174,0.004
-2.192,-0.1735,0.001
-2.189,-0.1735,0.0
-2.1835,-0.172,0.003
-2.1785,-0.1705,0.0045
-2.179,-0.171,0.0025
-2.1765,-0.172,0.0
-2.175,-0.1725,-0.002
-2.1755,-0.173,-0.005
-2.1775,-0.172,-0.006
-2.176,-0.1715,-0.0025
-2.173,-0.172,-0.003
-2.1735,-0.173,-0.004
-2.178,-0.1725,-0.0035
-2.18,-0.173,-0.001
-2.1775,-0.1725,0.001
-2.1845,-0.172,0.0015
-2.183,-0.171,0.0045
-2.178,-0.169,0.0055
-2.177,-0.169,0.007
-2.1735,-0.1685,0.0065
-2.1745,-0.1705,0.004
-2.175,-0.171,0.003
-2.172,-0.1705,0.0025
-2.17,-0.1695,0.002
-2.1705,-0.1695,0.001
-2.169,-0.17,-0.001
-2.17,-0.1685,-0.0015
-2.17,-0.1655,0.0
-2.1705,-0.1635,-0.0015
-2.1705,-0.164,0.0005
-2.1725,-0.164,0.004
-2.174,-0.163,0.004
-2.173,-0.165,0.004
-2.169,-0.166,0.003
-2.1565,-0.1675,0.003
-2.159,-0.1715,0.003
-2.166,-0.1715,0.004
-2.1665,-0.17,0.0065
-2.167,-0.1715,0.0035
-2.167,-0.1735,0.0015
-2.1645,-0.17,0.002
-2.1605,-0.1695,0.002
-2.1585,-0.1685,0.002
-2.1565,-0.167,0.001
-2.1605,-0.169,0.001
-2.1595,-0.168,-0.003
-2.16,-0.1695,-0.0065
-2.161,-0.1685,-0.0075
-2.1555,-0.1675,-0.0075
-2.1535,-0.168,-0.0065
-2.157,-0.167,-0.005
-2.1625,-0.1685,-0.004
-2.164,-0.169,-0.004
-2.162,-0.1685,-0.003
-2.156,-0.1685,-0.003
-2.158,-0.1705,-0.0025
-2.162,-0.1715,0.0005
-2.158,-0.1695,0.0005
-2.159,-0.1695,0.0005
-2.158,-0.168,0.001
-2.156,-0.167,-0.001
-2.1595,-0.166,-0.0005
-2.157,-0.1645,-0.0005
-2.151,-0.163,0.0005
-2.1505,-0.1625,0.003
-2.153,-0.161,0.001
-2.1575,-0.1605,-0.002
-2.161,-0.161,-0.002
-2.1645,-0.1595,-0.0035
-2.166,-0.1615,-0.0035
-2.1615,-0.1635,0.0
-2.1575,-0.164,-0.001
-2.157,-0.165,-0.001
-2.1575,-0.167,-0.0025
-2.155,-0.1685,-0.0035
-2.157,-0.168,-0.002
-2.165,-0.1685,-0.002
-2.1705,-0.1685,-0.001
-2.1705,-0.1675,-0.001
-2.1685,-0.1675,-0.003
-2.1665,-0.168,-0.0035
-2.1675,-0.168,-0.0005
-2.1655,-0.1685,-0.0005
-2.1635,-0.168,-0.003
-2.1655,-0.1695,-0.0025
-2.1625,-0.171,-0.004
-2.1585,-0.172,-0.008
-2.16,-0.1755,-0.01
-2.1625,-0.175,-0.01
-2.163,-0.174,-0.011
-2.166,-0.1745,-0.0085
-2.1665,-0.1735,-0.0045
-2.166,-0.1735,-0.004
-2.1625,-0.173,-0.005
-2.158,-0.17,-0.006
-2.1615,-0.168,-0.005
-2.1655,-0.1685,-0.002
-2.1655,-0.171,-0.0015
-2.1605,-0.1715,-0.0035
-2.16,-0.169,-0.005
-2.1595,-0.17,-0.006
-2.1575,-0.169,-0.007
-2.1535,-0.1685,-0.006
-2.147,-0.1685,-0.005
-2.1515,-0.168,-0.004
-2.1505,-0.168,-0.0055
-2.1465,-0.169,-0.0075
-2.1465,-0.1695,-0.008
-2.143,-0.169,-0.0095
-2.143,-0.1695,-0.0075
-2.143,-0.169,-0.0055
-2.1415,-0.17,-0.005
-2.1445,-0.1695,-0.006
-2.1455,-0.1665,-0.0045
-2.142,-0.167,-0.0045
-2.1415,-0.168,-0.005
-2.1435,-0.168,-0.004
-2.148,-0.168,-0.002
-2.15,-0.1685,-0.0005
-2.1485,-0.168,-0.002
-2.1475,-0.1665,-0.0045
-2.147,-0.168,-0.006
-2.1425,-0.1675,-0.006
-2.14,-0.17,-0.0055
-2.1405,-0.1715,-0.005
-2.133,-0.17,-0.006
-2.1285,-0.171,-0.007
-2.129,-0.17,-0.0065
-2.1325,-0.171,-0.003
-2.133,-0.1715,-0.0025
-2.134,-0.17,-0.004
-2.14,-0.171,-0.004
-2.146,-0.172,-0.0065
-2.147,-0.173,-0.0055
-2.1425,-0.174,-0.006
-2.14,-0.1745,-0.0075
-2.139,-0.174,-0.0065
-2.151,-0.174,-0.002
-2.1565,-0.1745,-0.001
-2.151,-0.174,-0.0025
-2.147,-0.173,-0.0045
-2.1445,-0.1715,-0.0075
-2.145,-0.172,-0.005
-2.141,-0.171,-0.005
-2.1415,-0.17,-0.006
-2.1385,-0.1715,-0.007
-2.1335,-0.1715,-0.0075
-2.1325,-0.17,-0.009
-2.1325,-0.1695,-0.01
-2.1335,-0.168,-0.008
-2.1365,-0.1685,-0.009
-2.1355,-0.169,-0.0075
-2.1365,-0.1685,-0.01
-2.1375,-0.1695,-0.0105
-2.1325,-0.169,-0.009
-2.133,-0.169,-0.0095
-2.134,-0.169,-0.007
-2.14,-0.1675,-0.0055
-2.1395,-0.166,-0.004
-2.1335,-0.1665,-0.0045
-2.1315,-0.167,-0.004
-2.1285,-0.166,-0.007
-2.124,-0.1655,-0.009
-2.127,-0.166,-0.007
-2.138,-0.1655,-0.006
-2.1365,-0.166,-0.006
-2.1365,-0.1685,-0.007
-2.1425,-0.168,-0.009
-2.144,-0.1705,-0.0115
-2.148,-0.174,-0.0105
-2.1495,-0.1755,-0.01
-2.147,-0.175,-0.011
-2.1465,-0.1755,-0.012
-2.149,-0.1735,-0.0115
-2.145,-0.172,-0.0125
-2.143,-0.172,-0.0105
-2.144,-0.1695,-0.0075
-2.145,-0.1715,-0.007
-2.143,-0.172,-0.004
-2.1375,-0.1685,-0.003
-2.142,-0.171,-0.0055
-2.1455,-0.173,-0.006
-2.1475,-0.1705,-0.0015
-2.1455,-0.169,-0.0035
-2.1485,-0.167,-0.0035
-2.148,-0.1675,-0.004
-2.144,-0.165,-0.0085
-2.1465,-0.162,-0.009
-2.146,-0.162,-0.0105
-2.1465,-0.1605,-0.0105
-2.1465,-0.163,-0.0115
-2.1465,-0.164,-0.0115
-2.147,-0.163,-0.0085
-2.147,-0.164,-0.007
-2.145,-0.165,-0.0085
-2.1495,-0.166,-0.0065
-2.15,-0.166,-0.004
-2.1475,-0.1665,-0.0065
-2.1545,-0.167,-0.0025
-2.1525,-0.1675,-0.0035
-2.1485,-0.1655,-0.0055
-2.15,-0.1655,-0.0055
-2.149,-0.1675,-0.0055
-2.1465,-0.165,-0.004
-2.149,-0.1675,-0.0075
-2.1495,-0.167,-0.008
-2.147,-0.1675,-0.01
-2.1495,-0.17,-0.013
-2.1475,-0.167,-0.0135
-2.144,-0.166,-0.013
-2.144,-0.1665,-0.0135
-2.142,-0.1655,-0.016
-2.145,-0.166,-0.0165
-2.1525,-0.167,-0.0175
-2.15,-0.167,-0.016
-2.1495,-0.1665,-0.012
-2.149,-0.163,-0.0105
-2.148,-0.166,-0.01
-2.156,-0.169,-0.011
-2.1575,-0.1685,-0.0105
-2.1545,-0.1685,-0.009
-2.152,-0.167,-0.0105
-2.149,-0.168,-0.0105
-2.147,-0.167,-0.008
-2.147,-0.1665,-0.0075
-2.1465,-0.167,-0.009
-2.1425,-0.1675,-0.0105
-2.143,-0.1675,-0.0125
-2.141,-0.1665,-0.0125
-2.133,-0.1655,-0.0135
-2.1365,-0.166,-0.0145
-2.142,-0.167,-0.0135
-2.145,-0.1655,-0.014
-2.1495,-0.164,-0.016
-2.1425,-0.1655,-0.0135
-2.139,-0.165,-0.0135
-2.1435,-0.164,-0.012
-2.145,-0.166,-0.01
-2.1525,-0.1645,-0.009
-2.153,-0.1645,-0.0085
-2.1425,-0.1645,-0.0105
-2.1405,-0.1635,-0.0095
-2.138,-0.1625,-0.0115
-2.133,-0.162,-0.0105
-2.1325,-0.163,-0.01
-2.1275,-0.162,-0.0125
-2.123,-0.1615,-0.0135
-2.12,-0.1605,-0.014
-2.1195,-0.161,-0.014
-2.1185,-0.161,-0.012
-2.1185,-0.161,-0.011
-2.124,-0.162,-0.01
-2.127,-0.163,-0.0085
-2.1325,-0.163,-0.0065
-2.1325,-0.16,-0.005
-2.128,-0.163,-0.0025
-2.129,-0.162,0.0
-2.126,-0.161,0.0015
-2.1255,-0.16,0.004
-2.128,-0.1585,0.006
-2.126,-0.1565,0.0025
-2.1225,-0.1535,0.001
-2.119,-0.153,0.001
-2.119,-0.1475,-0.003
-2.1225,-0.147,-0.0035
-2.1185,-0.146,-0.0045
-2.1115,-0.1425,-0.006
-2.11,-0.142,-0.01
-2.108,-0.137,-0.0125
-2.1085,-0.135,-0.012
-2.1065,-0.1315,-0.01
-2.1005,-0.1285,-0.0115
-2.1,-0.1295,-0.0105
-2.099,-0.125,-0.007
-2.096,-0.1225,-0.005
-2.092,-0.118,-0.0005
-2.092,-0.114,0.003
-2.0885,-0.114,0.0105
-2.087,-0.1115,0.016
-2.0875,-0.109,0.017
-2.082,-0.1045,0.02
-2.082,-0.1005,0.021
-2.079,-0.098,0.022
-2.071,-0.0935,0.0235
-2.073,-0.0925,0.021
-2.071,-0.093,0.021
-2.0675,-0.088,0.018
-2.068,-0.086,0.0135
-2.0675,-0.086,0.012
-2.0685,-0.084,0.0105
-2.0665,-0.08,0.0075
-2.066,-0.0725,0.0065
-2.062,-0.068,0.007
-2.058,-0.066,0.0065
-2.049,-0.0595,0.007
-2.041,-0.0545,0.008
-2.04,-0.0535,0.0105
-2.035,-0.051,0.0135
-2.031,-0.047,0.0125
-2.028,-0.045,0.013
-2.0265,-0.044,0.0185
-2.0185,-0.0415,0.0195
-2.0155,-0.0435,0.0185
-2.018,-0.045,0.0215
-2.0225,-0.0445,0.0225
-2.03,-0.0475,0.0185
-2.031,-0.05,0.016
-2.036,-0.054,0.0085
-2.034,-0.056,0.0065
-2.034,-0.0575,0.0135
-2.0375,-0.0595,0.0175
-2.034,-0.0605,0.02
-2.041,-0.0685,0.0185
-2.048,-0.077,0.0205
-2.0475,-0.0795,0.0215
-2.051,-0.081,0.021
-2.0545,-0.087,0.0215
-2.051,-0.0915,0.0225
-2.0465,-0.0915,0.0275
-2.0485,-0.0945,0.0315
-2.0505,-0.0965,0.0325
-2.047,-0.0965,0.033
-2.0415,-0.0945,0.0285
-2.038,-0.094,0.0255
-2.043,-0.0975,0.0205
-2.045,-0.1015,0.0155
-2.0445,-0.104,0.012
-2.044,-0.106,0.0045
-2.041,-0.1075,0.003
-2.0405,-0.1105,0.0015
-2.04,-0.1095,0.0005
-2.0425,-0.1075,0.0045
-2.0445,-0.105,0.004
-2.049,-0.1055,0.001
-2.0485,-0.1085,-0.005
-2.047,-0.1075,-0.0095
-2.0505,-0.111,-0.013
-2.054,-0.116,-0.0155
-2.0585,-0.118,-0.016
-2.0535,-0.1165,-0.013
-2.0525,-0.1145,-0.0085
-2.049,-0.1155,-0.011
-2.043,-0.1175,-0.0135
-2.043,-0.116,-0.013
-2.047,-0.1155,-0.011
-2.0515,-0.118,-0.0105
-2.049,-0.117,-0.0065
-2.0535,-0.1165,0.0025
-2.0605,-0.118,0.008
-2.065,-0.12,0.0115
-2.0775,-0.129,0.0145
-2.089,-0.138,0.011
-2.0955,-0.144,0.0045
-2.099,-0.149,-0.0005
-2.0955,-0.1515,-0.0075
-2.098,-0.153,-0.012
-2.102,-0.155,-0.0145
-2.1015,-0.1565,-0.016
-2.102,-0.1605,-0.0155
-2.1015,-0.165,-0.015
-2.106,-0.1675,-0.018
-2.109,-0.175,-0.0215
-2.1105,-0.178,-0.02
-2.114,-0.177,-0.023
-2.119,-0.181,-0.0255
-2.12,-0.185,-0.0255
-2.1175,-0.187,-0.027
-2.118,-0.1875,-0.0265
-2.1165,-0.1865,-0.0255
-2.1205,-0.1865,-0.028
-2.12,-0.1905,-0.029
-2.1145,-0.19,-0.0285
-2.117,-0.1905,-0.0315
-2.118,-0.191,-0.0325
-2.1135,-0.1885,-0.032
-2.1165,-0.1885,-0.0335
-2.122,-0.188,-0.0315
-2.1195,-0.188,-0.031
-2.1195,-0.1875,-0.0315
-2.1215,-0.1855,-0.034
-2.1225,-0.184,-0.035
-2.1245,-0.1845,-0.0345
-2.119,-0.184,-0.0355
-2.115,-0.181,-0.035
-2.1155,-0.1805,-0.035
-2.1115,-0.1815,-0.036
-2.1075,-0.18,-0.0405
-2.108,-0.181,-0.0405
-2.109,-0.1805,-0.039
-2.108,-0.18,-0.0395
-2.1065,-0.182,-0.038
-2.105,-0.181,-0.0345
-2.106,-0.1815,-0.035
-2.106,-0.1835,-0.0365
-2.104,-0.1835,-0.0335
-2.1115,-0.1835,-0.033
-2.125,-0.1815,-0.0315
-2.1245,-0.181,-0.028
-2.1195,-0.1845,-0.027
-2.1165,-0.1845,-0.025
-2.1165,-0.1855,-0.027
-2.119,-0.187,-0.0245
-2.1175,-0.1855,-0.024
-2.116,-0.1865,-0.0245
-2.1185,-0.188,-0.02
-2.119,-0.1905,-0.0235
-2.1125,-0.191,-0.0255
-2.115,-0.1905,-0.0255
-2.1175,-0.192,-0.0265
-2.1145,-0.191,-0.0285
-2.118,-0.1905,-0.0285
-2.1185,-0.1905,-0.0275
-2.1205,-0.1905,-0.0255
-2.122,-0.1925,-0.026
-2.1185,-0.192,-0.0275
-2.1175,-0.1915,-0.0275
-2.116,-0.191,-0.0285
-2.115,-0.1885,-0.0265
-2.1145,-0.1895,-0.0235
-2.113,-0.1905,-0.022
-2.1105,-0.189,-0.0235
-2.112,-0.188,-0.022
-2.1105,-0.186,-0.0225
-2.1085,-0.184,-0.023
-2.112,-0.184,-0.0215
-2.1085,-0.184,-0.0245
-2.106,-0.1835,-0.0265
-2.11,-0.1845,-0.0265
-2.112,-0.1835,-0.0275
-2.112,-0.183,-0.026
-2.119,-0.1855,-0.026
-2.121,-0.1835,-0.0265
-2.124,-0.184,-0.0255
-2.1315,-0.1875,-0.026
-2.1255,-0.1855,-0.0265
-2.124,-0.187,-0.028
-2.129,-0.1875,-0.024
-2.129,-0.187,-0.021
-2.1255,-0.186,-0.021
-2.1235,-0.184,-0.0215
-2.121,-0.179,-0.021
-2.1225,-0.1785,-0.019
-2.1235,-0.1805,-0.0195
-2.1145,-0.1785,-0.0215
-2.115,-0.1785,-0.021
-2.114,-0.1755,-0.02
-2.111,-0.178,-0.0265
-2.109,-0.1785,-0.03
-2.1135,-0.179,-0.028
-2.125,-0.189,-0.0335
-2.127,-0.1965,-0.038
-2.1325,-0.2045,-0.043
-2.1425,-0.218,-0.0525
-2.1545,-0.239,-0.0645
-2.1625,-0.2575,-0.0755
-2.163,-0.275,-0.0855
-2.1665,-0.2945,-0.1005
-2.169,-0.3095,-0.106
-2.17,-0.317,-0.11
-2.1695,-0.317,-0.1145
-2.17,-0.3215,-0.118
-2.1725,-0.322,-0.12
-2.163,-0.3105,-0.1185
-2.14,-0.293,-0.1235
-2.1255,-0.265,-0.1235
-2.1,-0.2235,-0.132
-2.0685,-0.1905,-0.146
-2.047,-0.156,-0.147
-2.019,-0.11,-0.1385
-2.006,-0.0725,-0.121
-1.985,-0.0115,-0.104
-1.956,0.0575,-0.0855
-1.934,0.112,-0.0725
-1.91,0.1665,-0.058
-1.888,0.228,-0.0295
-1.862,0.296,0.0105
-1.8265,0.3815,0.064
-1.7885,0.4825,0.107
-1.7685,0.55,0.1605
-1.754,0.607,0.23
-1.722,0.7035,0.29
-1.7085,0.7895,0.3645
-1.7225,0.835,0.4155
-1.7165,0.8915,0.438
-1.702,0.9635,0.4615
-1.6885,1.0255,0.48
-1.6885,1.0605,0.4815
-1.7045,1.0885,0.475
-1.728,1.097,0.48
-1.763,1.04,0.459
-1.807,0.96,0.4265
-1.8495,0.8705,0.3665
-1.891,0.736,0.2615
-1.9435,0.5885,0.2005
-2.007,0.4095,0.175
-2.082,0.191,0.157
-2.164,-0.061,0.1485
-2.2405,-0.301,0.1255
-2.291,-0.4715,0.102
-2.3135,-0.577,0.0805
-2.315,-0.5975,0.0515
-2.31,-0.6025,0.0145
-2.318,-0.624,-0.019
-2.316,-0.625,-0.0445
-2.3135,-0.6155,-0.0775
-2.3185,-0.612,-0.1065
-2.3175,-0.6175,-0.132
-2.3105,-0.6085,-0.145
-2.295,-0.579,-0.139
-2.2875,-0.552,-0.1355
-2.2745,-0.5195,-0.1295
-2.259,-0.4855,-0.1195
-2.251,-0.463,-0.108
-2.242,-0.435,-0.0965
-2.224,-0.397,-0.087
-2.2055,-0.359,-0.079
-2.194,-0.3215,-0.068
-2.181,-0.2935,-0.0615
-2.165,-0.274,-0.0605
-2.1505,-0.253,-0.059
-2.138,-0.235,-0.0575
-2.126,-0.22,-0.0545
-2.122,-0.21,-0.053
-2.118,-0.2,-0.046
-2.116,-0.191,-0.036
-2.115,-0.1835,-0.0275
-2.109,-0.178,-0.0205
-2.1055,-0.1745,-0.017
-2.1055,-0.1755,-0.0145
-2.1035,-0.173,-0.011
-2.099,-0.1695,-0.0065
-2.099,-0.167,-0.005
-2.098,-0.164,-0.0005
-2.0985,-0.1675,0.0015
-2.098,-0.166,0.0035
-2.099,-0.166,0.0045
-2.1025,-0.168,0.008
-2.0985,-0.168,0.0095
-2.1,-0.1695,0.0065
-2.102,-0.1675,0.009
-2.101,-0.169,0.006
-2.0955,-0.169,0.0025
-2.0915,-0.167,0.002
-2.0955,-0.168,0.004
-2.0945,-0.166,0.0035
-2.092,-0.1645,0.0
-2.087,-0.1665,0.0005
-2.0885,-0.167,-0.0025
-2.092,-0.1655,-0.0035
-2.0945,-0.163,-0.0025
-2.1015,-0.1615,-0.0015
-2.102,-0.16,-0.0005
-2.0995,-0.159,0.0
-2.097,-0.1565,-0.0015
-2.0905,-0.1525,0.0
-2.085,-0.151,0.001
-2.087,-0.1495,-0.0015
-2.0865,-0.1485,0.0005
-2.09,-0.151,-0.001
-2.091,-0.15,-0.0015
-2.09,-0.144,0.0015
-2.094,-0.143,0.002
-2.094,-0.1465,0.0
-2.099,-0.1475,-0.0005
-2.106,-0.146,-0.0015
-2.1075,-0.145,-0.006
-2.104,-0.1465,-0.008
-2.11,-0.148,-0.006
-2.108,-0.1475,-0.004
-2.099,-0.1455,-0.0035
-2.0955,-0.1465,-0.0045
-2.0955,-0.149,-0.0035
-2.099,-0.15,-0.0045
-2.1015,-0.149,-0.004
-2.102,-0.149,-0.0005
-2.1015,-0.149,0.0
-2.1025,-0.1475,0.0
-2.102,-0.1465,0.0005
-2.1025,-0.146,0.0025
-2.1,-0.147,0.0015
-2.098,-0.1465,-0.0025
-2.098,-0.144,0.002
-2.0935,-0.1425,0.0025
-2.097,-0.1415,-0.0025
-2.1055,-0.144,-0.0015
-2.102,-0.1435,-0.0035
-2.096,-0.1425,-0.0065
-2.091,-0.1435,-0.009
-2.0875,-0.144,-0.0105
-2.0905,-0.1455,-0.012
-2.09,-0.1425,-0.0115
-2.0885,-0.1375,-0.011
-2.0915,-0.1405,-0.0105
-2.098,-0.142,-0.008
-2.0925,-0.1405,-0.0105
-2.0905,-0.1435,-0.009
-2.0965,-0.1445,-0.008
-2.092,-0.1415,-0.005
-2.092,-0.1435,-0.0015
-2.0875,-0.1425,-0.001
-2.0845,-0.141,-0.0005
-2.088,-0.142,-0.0035
-2.088,-0.142,-0.002
-2.086,-0.142,-0.0005
-2.09,-0.142,0.001
-2.092,-0.1415,-0.002
-2.0855,-0.1405,-0.004
-2.0875,-0.1415,-0.007
-2.09,-0.1425,-0.008
-2.087,-0.1405,-0.0055
-2.085,-0.1395,-0.0085
-2.082,-0.138,-0.009
-2.0875,-0.1345,-0.008
-2.0935,-0.1335,-0.008
-2.0855,-0.1305,-0.007
-2.083,-0.129,-0.0055
-2.0825,-0.1255,-0.0035
-2.083,-0.124,-0.004
-2.0845,-0.126,-0.0045
-2.0845,-0.125,-0.0055
-2.085,-0.1225,-0.007
-2.0865,-0.123,-0.0065
-2.093,-0.1265,-0.0095
-2.0905,-0.1255,-0.009
-2.092,-0.126,-0.004
-2.085,-0.123,-0.002
-2.071,-0.1175,-0.0005
-2.071,-0.119,-0.0045
-2.079,-0.126,-0.005
-2.0765,-0.126,-0.0025
-2.0725,-0.1265,-0.0055
-2.0805,-0.1285,-0.004
-2.0795,-0.125,-0.0075
-2.0715,-0.1255,-0.011
-2.062,-0.123,-0.006
-2.07,-0.1255,-0.011
-2.072,-0.1245,-0.0105
-2.068,-0.12,-0.0045
-2.0775,-0.122,-0.001
-2.081,-0.1215,-0.0015
-2.085,-0.123,-0.003
-2.0845,-0.122,0.0005
-2.081,-0.12,-0.0005
-2.075,-0.1205,-0.004
-2.0785,-0.1225,-0.0085
-2.085,-0.124,-0.007
-2.073,-0.1255,-0.0065
-2.0685,-0.126,-0.0105
-2.068,-0.1235,-0.012
-2.0515,-0.12,-0.0125
-2.048,-0.1175,-0.008
-2.053,-0.1175,-0.009
-2.0525,-0.1185,-0.0125
-2.0535,-0.1195,-0.015
-2.0495,-0.1165,-0.0125
-2.0465,-0.116,-0.009
-2.0495,-0.1185,-0.01
-2.054,-0.1185,-0.01
-2.053,-0.119,-0.009
-2.048,-0.1185,-0.0055
-2.0445,-0.1145,-0.0065
-2.042,-0.112,-0.009
-2.0395,-0.114,-0.005
-2.032,-0.112,-0.0085
-2.04,-0.112,-0.0095
-2.0495,-0.1135,-0.0065
-2.044,-0.113,-0.0105
-2.0435,-0.113,-0.0125
-2.0445,-0.11,-0.011
-2.0495,-0.107,-0.01
-2.053,-0.1095,-0.006
-2.055,-0.1115,-0.004
-2.0575,-0.1085,-0.005
-2.0605,-0.11,-0.0035
-2.057,-0.11,-0.005
-2.048,-0.107,-0.005
-2.05,-0.106,-0.0035
-2.0475,-0.1025,0.0005
-2.0465,-0.1035,-0.0005
-2.045,-0.1045,-0.0055
-2.036,-0.0965,-0.0025
-2.035,-0.0955,-0.0015
-2.0345,-0.097,-0.003
-2.028,-0.094,-0.0015
-2.0385,-0.096,0.001
-2.043,-0.096,0.003
-2.0315,-0.0925,0.005
-2.029,-0.092,0.0015
-2.026,-0.09,0.0005
-2.0225,-0.0865,0.0025
-2.0215,-0.087,0.0005
-2.02,-0.0865,-0.001
-2.0195,-0.084,-0.0025
-2.023,-0.0845,-0.003
-2.02,-0.085,-0.0015
-2.0185,-0.083,-0.0025
-2.026,-0.084,-0.002
-2.0235,-0.0855,-0.0035
-2.022,-0.0865,-0.001
-2.0205,-0.085,0.002
-2.019,-0.0845,0.0
-2.018,-0.083,0.001
-2.0155,-0.0805,0.0
-2.011,-0.077,0.003
-2.008,-0.0765,0.005
-2.012,-0.074,0.0045
-2.008,-0.069,0.008
-2.007,-0.0685,0.007
-2.0055,-0.0675,0.0055
-1.999,-0.065,0.0055
-1.9955,-0.064,0.005
-1.993,-0.063,0.007
-1.992,-0.0605,0.0075
-1.996,-0.062,0.009
-1.998,-0.061,0.013
-1.9925,-0.057,0.0155
-1.991,-0.0535,0.018
-1.989,-0.05,0.0195
-1.9905,-0.047,0.022
-1.983,-0.0435,0.018
-1.978,-0.0435,0.0155
-1.9785,-0.0445,0.0145
-1.971,-0.0445,0.0125
-1.968,-0.0405,0.0145
-1.968,-0.0365,0.013
-1.971,-0.0365,0.0165
-1.97,-0.035,0.0175
-1.9645,-0.032,0.017
-1.965,-0.0285,0.018
-1.963,-0.027,0.016
-1.96,-0.024,0.016
-1.9615,-0.022,0.019
-1.9595,-0.021,0.0195
-1.959,-0.0185,0.017
-1.951,-0.0185,0.0195
-1.9475,-0.0175,0.0205
-1.9585,-0.0155,0.0235
-1.9595,-0.0135,0.026
-1.957,-0.0105,0.026
-1.95,-0.009,0.025
-1.944,-0.006,0.0235
-1.942,-0.0035,0.026
-1.9405,-0.001,0.027
-1.9385,0.0015,0.028
-1.938,0.0025,0.03
-1.9395,0.0045,0.032
-1.9355,0.006,0.0315
-1.9295,0.01,0.032
-1.932,0.011,0.0285
-1.93,0.0125,0.026
-1.9225,0.017,0.0315
-1.922,0.0175,0.033
-1.9215,0.0205,0.0355
-1.924,0.0225,0.037
-1.9245,0.0235,0.036
-1.921,0.026,0.0365
-1.921,0.029,0.0345
-1.919,0.033,0.036
-1.9145,0.033,0.037
-1.913,0.0325,0.038
-1.914,0.0335,0.039
-1.913,0.035,0.0415
-1.9125,0.038,0.0425
-1.91,0.0395,0.045
-1.912,0.0395,0.0465
-1.9125,0.0395,0.0435
-1.9095,0.041,0.0455
-1.9065,0.041,0.047
-1.9035,0.0455,0.0455
-1.9055,0.044,0.044
-1.908,0.042,0.048
-1.905,0.0435,0.049
-1.897,0.046,0.05
-1.8985,0.0475,0.05
-1.8995,0.0445,0.0455
-1.896,0.0465,0.0485
-1.8995,0.0465,0.049
-1.905,0.0455,0.049
-1.9075,0.0455,0.05
-1.906,0.0465,0.0505
-1.909,0.0495,0.0535
-1.916,0.0455,0.0545
-1.9185,0.044,0.053
-1.918,0.0425,0.0515
-1.9195,0.0405,0.05
-1.926,0.0375,0.048
-1.9375,0.033,0.0455
-1.945,0.028,0.044
-1.946,0.0235,0.04
-1.948,0.0205,0.038
-1.9455,0.019,0.0405
-1.943,0.018,0.0365
-1.957,0.009,0.0345
-1.9615,0.01,0.036
-1.9565,0.0115,0.0355
-1.9595,-0.0005,0.029
-1.9665,-0.0045,0.026
-1.973,-0.0085,0.0265
-1.971,-0.0115,0.022
-1.971,-0.017,0.0215
-1.9775,-0.0235,0.0185
-1.983,-0.027,0.0175
-1.989,-0.036,0.0135
-1.9905,-0.039,0.0065
-1.9865,-0.0405,0.008
-1.991,-0.0445,0.0065
-1.998,-0.051,0.0015
-1.999,-0.0575,0.003
-1.9975,-0.0625,-0.0015
-1.9965,-0.0665,-0.0065
-2.0,-0.072,-0.003
-2.0015,-0.08,-0.007
-1.996,-0.0855,-0.0115
-1.9975,-0.088,-0.0115
-1.9995,-0.0885,-0.0105
-2.006,-0.0895,-0.0115
-2.021,-0.0925,-0.011
-2.0295,-0.096,-0.0105
-2.0335,-0.101,-0.014
-2.03,-0.1025,-0.0165
-2.03,-0.1045,-0.0145
-2.032,-0.108,-0.014
-2.034,-0.1115,-0.0165
-2.03,-0.1135,-0.0155
-2.028,-0.1145,-0.0175
-2.036,-0.1195,-0.019
-2.0395,-0.1225,-0.027
-2.044,-0.1235,-0.03
-2.0475,-0.125,-0.0285
-2.0505,-0.129,-0.031
-2.0495,-0.133,-0.0295
-2.05,-0.1355,-0.032
-2.054,-0.1405,-0.0335
-2.0555,-0.1445,-0.033
-2.056,-0.1465,-0.036
-2.0545,-0.1505,-0.037
-2.058,-0.1505,-0.0345
-2.061,-0.1475,-0.0315
-2.061,-0.148,-0.0305
-2.0615,-0.149,-0.0315
-2.061,-0.148,-0.0305
-2.056,-0.1455,-0.031
-2.0565,-0.1465,-0.0335
-2.057,-0.145,-0.0335
-2.0585,-0.1435,-0.0335
-2.0635,-0.1425,-0.0335
-2.0635,-0.14,-0.036
-2.07,-0.1415,-0.035
-2.0685,-0.14,-0.0355
-2.063,-0.141,-0.033
-2.0615,-0.1415,-0.033
-2.057,-0.143,-0.0375
-2.059,-0.1455,-0.0385
-2.069,-0.148,-0.042
-2.0755,-0.149,-0.041
-2.0785,-0.1485,-0.038
-2.082,-0.15,-0.038
-2.0735,-0.1475,-0.039
-2.07,-0.1495,-0.0365
-2.0755,-0.154,-0.0385
-2.0785,-0.153,-0.0395
-2.079,-0.1525,-0.037
-2.0765,-0.157,-0.039
-2.07,-0.1575,-0.038
-2.069,-0.155,-0.0395
-2.0765,-0.157,-0.0445
-2.0745,-0.16,-0.0465
-2.076,-0.1615,-0.0475
-2.079,-0.1625,-0.0495
-2.0735,-0.1635,-0.0475
-2.0745,-0.1625,-0.048
-2.077,-0.164,-0.0505
-2.0765,-0.1595,-0.0515
-2.0805,-0.1585,-0.052
-2.08,-0.163,-0.0525
-2.077,-0.162,-0.0535
-2.0815,-0.161,-0.048
-2.079,-0.1595,-0.043
-2.0785,-0.1615,-0.044
-2.078,-0.1595,-0.044
-2.075,-0.1585,-0.0475
-2.074,-0.16,-0.0505
-2.073,-0.1585,-0.0475
-2.0715,-0.159,-0.047
-2.0725,-0.159,-0.0465
-2.0815,-0.159,-0.044
-2.082,-0.161,-0.0485
-2.0845,-0.1615,-0.0465
-2.0905,-0.1615,-0.0465
-2.09,-0.162,-0.05
-2.0885,-0.1605,-0.048
-2.0845,-0.1625,-0.048
-2.084,-0.161,-0.0465
-2.0855,-0.161,-0.051
-2.0935,-0.1675,-0.05
-2.098,-0.167,-0.046
-2.094,-0.1625,-0.044
-2.0935,-0.1615,-0.04
-2.095,-0.166,-0.041
-2.093,-0.1675,-0.0425
-2.0905,-0.1675,-0.04
-2.0875,-0.1675,-0.038
-2.0875,-0.1675,-0.037
-2.091,-0.17,-0.0375
-2.0895,-0.171,-0.039
-2.0885,-0.1705,-0.036
-2.0855,-0.1685,-0.0355
-2.0845,-0.168,-0.042
-2.0875,-0.1655,-0.042
-2.0895,-0.1675,-0.042
-2.0905,-0.17,-0.0445
-2.088,-0.1655,-0.04
-2.084,-0.166,-0.0415
-2.088,-0.165,-0.04
-2.0955,-0.166,-0.041
-2.094,-0.1675,-0.0435
-2.092,-0.166,-0.04
-2.0915,-0.166,-0.042
-2.094,-0.1675,-0.0415
-2.096,-0.1675,-0.0435
-2.0965,-0.169,-0.048
-2.095,-0.1685,-0.047
-2.091,-0.164,-0.046
-2.089,-0.163,-0.0435
-2.088,-0.1595,-0.0415
-2.094,-0.16,-0.046
-2.0945,-0.1625,-0.045
-2.087,-0.1615,-0.0445
-2.089,-0.16,-0.044
-2.09,-0.1625,-0.0385
-2.0855,-0.164,-0.0385
-2.084,-0.165,-0.039
-2.087,-0.17,-0.042
-2.0885,-0.1675,-0.044
-2.088,-0.1655,-0.0425
-2.088,-0.1655,-0.0425
-2.087,-0.167,-0.0385
-2.0865,-0.1695,-0.038
-2.0775,-0.167,-0.036
-2.0735,-0.166,-0.0335
-2.077,-0.167,-0.0335
-2.075,-0.168,-0.0325
-2.075,-0.1705,-0.0345
-2.0695,-0.171,-0.0345
-2.068,-0.172,-0.0375
-2.073,-0.178,-0.039
-2.07,-0.1815,-0.043
-2.067,-0.1815,-0.05
-2.0675,-0.18,-0.05
-2.069,-0.1795,-0.046
-2.073,-0.1775,-0.044
-2.071,-0.176,-0.043
-2.068,-0.1765,-0.0445
-2.076,-0.176,-0.0455
-2.0835,-0.176,-0.043
-2.0845,-0.1755,-0.0415
-2.085,-0.1735,-0.0415
-2.0865,-0.1745,-0.0395
-2.084,-0.1755,-0.04
-2.079,-0.173,-0.042
-2.0775,-0.176,-0.0415
-2.078,-0.1765,-0.042
-2.075,-0.173,-0.04
-2.063,-0.173,-0.0385
-2.0645,-0.1725,-0.0415
-2.075,-0.1715,-0.04
-2.0755,-0.1715,-0.041
-2.074,-0.174,-0.042
-2.077,-0.171,-0.044
-2.085,-0.174,-0.047
-2.0815,-0.177,-0.038
-2.0775,-0.1715,-0.036
-2.0755,-0.171,-0.0385
-2.0785,-0.1735,-0.0375
-2.081,-0.174,-0.0395
-2.076,-0.173,-0.0425
-2.0755,-0.173,-0.041
-2.072,-0.172,-0.035
-2.07,-0.1715,-0.035
-2.071,-0.172,-0.033
-2.07,-0.1735,-0.0305
-2.0715,-0.176,-0.034
-2.0755,-0.179,-0.035
-2.0725,-0.1805,-0.031
-2.069,-0.1785,-0.0315
-2.066,-0.176,-0.0335
-2.0595,-0.1765,-0.0335
-2.058,-0.177,-0.0345
-2.068,-0.18,-0.0395
-2.0795,-0.1795,-0.0385
-2.082,-0.176,-0.035
-2.0805,-0.1755,-0.036
-2.082,-0.1715,-0.037
-2.084,-0.1695,-0.04
-2.079,-0.17,-0.043
-2.081,-0.171,-0.0445
-2.0885,-0.172,-0.0395
-2.0855,-0.169,-0.0385
-2.084,-0.17,-0.039
-2.086,-0.1715,-0.0355
-2.0815,-0.1695,-0.0355
-2.074,-0.1665,-0.0345
-2.0715,-0.165,-0.036
-2.0705,-0.1665,-0.036
-2.072,-0.167,-0.0335
-2.0775,-0.167,-0.035
-2.0705,-0.168,-0.034
-2.069,-0.17,-0.0375
-2.074,-0.1695,-0.0375
-2.0765,-0.1705,-0.035
-2.0825,-0.172,-0.0375
-2.0795,-0.17,-0.0395
-2.08,-0.169,-0.043
-2.085,-0.1705,-0.044
-2.0825,-0.1675,-0.0445
-2.082,-0.164,-0.043
-2.0845,-0.167,-0.041
-2.086,-0.167,-0.041
-2.085,-0.1685,-0.041
-2.085,-0.1715,-0.0405
-2.084,-0.17,-0.039
-2.082,-0.17,-0.0375
-2.0795,-0.169,-0.0335
-2.079,-0.17,-0.0325
-2.0775,-0.1705,-0.0345
-2.0795,-0.1695,-0.037
-2.084,-0.173,-0.041
-2.0835,-0.176,-0.0435
-2.082,-0.1755,-0.0455
-2.074,-0.174,-0.0455
-2.07,-0.175,-0.045
-2.08,-0.1765,-0.0435
-2.0895,-0.175,-0.0415
-2.094,-0.173,-0.043
-2.0875,-0.1725,-0.047
-2.078,-0.171,-0.0425
-2.0775,-0.167,-0.0415
-2.079,-0.1655,-0.042
-2.08,-0.164,-0.038
-2.0755,-0.1635,-0.038
-2.0775,-0.166,-0.036
-2.0785,-0.166,-0.0385
-2.073,-0.164,-0.04
-2.0695,-0.162,-0.0355
-2.0645,-0.163,-0.039
-2.0715,-0.1665,-0.04
-2.0725,-0.1665,-0.041
-2.0675,-0.164,-0.0425
-2.076,-0.166,-0.0465
-2.084,-0.165,-0.046
-2.0855,-0.163,-0.0415
-2.087,-0.166,-0.0425
-2.087,-0.167,-0.04
-2.0835,-0.168,-0.0435
-2.086,-0.169,-0.0455
-2.085,-0.172,-0.0435
-2.082,-0.1745,-0.047
-2.084,-0.175,-0.041
-2.0825,-0.1785,-0.033
-2.0805,-0.1815,-0.034
-2.077,-0.1785,-0.035
-2.0705,-0.1755,-0.037
-2.076,-0.182,-0.038
-2.0815,-0.181,-0.0405
-2.077,-0.1825,-0.042
-2.0745,-0.1835,-0.041
-2.0725,-0.1815,-0.039
-2.078,-0.1845,-0.0395
-2.0835,-0.183,-0.041
-2.0805,-0.182,-0.037
-2.08,-0.1795,-0.0345
-2.078,-0.18,-0.0305
-2.073,-0.1785,-0.031
-2.0745,-0.1745,-0.033
-2.0785,-0.1745,-0.0355
-2.078,-0.1705,-0.038
-2.0775,-0.1705,-0.0365
-2.0805,-0.17,-0.0385
-2.079,-0.166,-0.0375
-2.0785,-0.163,-0.04
-2.0815,-0.1625,-0.043
-2.081,-0.162,-0.045
-2.0835,-0.163,-0.0475
-2.081,-0.1655,-0.046
-2.0805,-0.166,-0.0475
-2.084,-0.168,-0.048
-2.0815,-0.171,-0.05
-2.082,-0.1735,-0.052
-2.0815,-0.172,-0.0495
-2.0815,-0.1735,-0.0495
-2.0835,-0.1735,-0.049
-2.0845,-0.1735,-0.0485
-2.0825,-0.174,-0.051
-2.081,-0.1745,-0.051
-2.0775,-0.177,-0.0485
-2.076,-0.1775,-0.0525
-2.081,-0.1765,-0.0555
-2.0825,-0.174,-0.0535
-2.0875,-0.1755,-0.05
-2.0885,-0.173,-0.0445
-2.085,-0.173,-0.044
-2.081,-0.1735,-0.043
-2.083,-0.1715,-0.0415
-2.089,-0.173,-0.0455
-2.083,-0.1725,-0.045
-2.083,-0.1725,-0.0425
-2.0825,-0.174,-0.044
-2.08,-0.174,-0.0475
-2.08,-0.1735,-0.05
-2.0785,-0.1755,-0.0505
-2.0825,-0.175,-0.05
-2.089,-0.1755,-0.046
-2.087,-0.174,-0.0495
-2.087,-0.1695,-0.0525
-2.088,-0.169,-0.0485
-2.0825,-0.169,-0.047
-2.0845,-0.1715,-0.0465
-2.0835,-0.173,-0.048
-2.079,-0.172,-0.0465
-2.082,-0.174,-0.045
-2.082,-0.176,-0.0455
-2.079,-0.1765,-0.046
-2.0845,-0.179,-0.047
-2.086,-0.179,-0.047
-2.0865,-0.1815,-0.043
-2.0865,-0.1825,-0.041
-2.085,-0.183,-0.046
-2.091,-0.189,-0.046
-2.0945,-0.19,-0.046
-2.097,-0.189,-0.049
-2.0975,-0.1875,-0.049
-2.097,-0.1845,-0.043
-2.0975,-0.1865,-0.045
-2.092,-0.189,-0.049
-2.0915,-0.1905,-0.046
-2.0915,-0.192,-0.049
-2.0935,-0.1895,-0.047
-2.0975,-0.187,-0.045
-2.093,-0.181,-0.0465
-2.098,-0.1775,-0.045
-2.1075,-0.179,-0.049
-2.111,-0.1785,-0.0485
-2.109,-0.177,-0.045
-2.099,-0.175,-0.0445
-2.095,-0.1755,-0.0425
-2.0955,-0.176,-0.043
-2.091,-0.174,-0.0455
-2.0875,-0.171,-0.045
-2.0915,-0.1705,-0.0475
-2.0965,-0.1715,-0.0485
-2.0965,-0.172,-0.045
-2.1045,-0.1755,-0.0475
-2.107,-0.1755,-0.0495
-2.108,-0.1765,-0.054
-2.109,-0.1735,-0.0545
-2.0995,-0.17,-0.0505
-2.0985,-0.172,-0.0515
-2.1,-0.172,-0.046
-2.0995,-0.173,-0.0425
-2.1,-0.171,-0.044
-2.0925,-0.167,-0.049
-2.091,-0.1665,-0.0505
-2.0975,-0.1665,-0.0465
-2.09,-0.17,-0.052
-2.0815,-0.1735,-0.0555
-2.0905,-0.1755,-0.0485
-2.095,-0.177,-0.046
-2.093,-0.177,-0.046
-2.0945,-0.1765,-0.0465
-2.0955,-0.1795,-0.0495
-2.098,-0.181,-0.049
-2.1035,-0.182,-0.047
-2.109,-0.186,-0.047
-2.1075,-0.1865,-0.0475
-2.1015,-0.186,-0.047
-2.094,-0.188,-0.05
-2.0965,-0.185,-0.051
-2.0965,-0.179,-0.049
-2.093,-0.1805,-0.047
-2.0955,-0.18,-0.044
-2.0925,-0.1785,-0.0445
-2.0915,-0.1785,-0.0445
-2.0935,-0.1765,-0.0485
-2.089,-0.175,-0.052
-2.0845,-0.172,-0.0515
-2.0865,-0.17,-0.052
-2.0875,-0.1695,-0.05
-2.094,-0.169,-0.051
-2.0925,-0.169,-0.0515
-2.0785,-0.166,-0.052
-2.077,-0.165,-0.054
-2.087,-0.1655,-0.0545
-2.0925,-0.1635,-0.0505
-2.092,-0.1625,-0.0495
-2.0925,-0.166,-0.056
-2.089,-0.1685,-0.053
-2.0905,-0.168,-0.052
-2.099,-0.169,-0.0515
-2.0895,-0.167,-0.0455
-2.085,-0.172,-0.0445
-2.0915,-0.178,-0.0465
-2.0905,-0.178,-0.046
-2.0905,-0.183,-0.046
-2.085,-0.1835,-0.048
-2.082,-0.184,-0.0445
-2.084,-0.182,-0.0445
-2.0825,-0.1815,-0.0475
-2.0875,-0.1865,-0.049
-2.0865,-0.1845,-0.0545
-2.084,-0.1845,-0.0565
-2.085,-0.1835,-0.055
-2.0825,-0.182,-0.0525
-2.0875,-0.185,-0.056
-2.093,-0.1885,-0.0595
-2.088,-0.1875,-0.054
-2.0795,-0.183,-0.0495
-2.083,-0.1825,-0.051
-2.088,-0.1845,-0.053
-2.083,-0.1835,-0.0525
-2.082,-0.1815,-0.0525
-2.0815,-0.181,-0.054
-2.0775,-0.1775,-0.0535
-2.083,-0.18,-0.053
-2.0885,-0.184,-0.0545
-2.09,-0.1835,-0.0565
-2.096,-0.1845,-0.0575
-2.0945,-0.18,-0.0605
-2.089,-0.1795,-0.063
-2.0915,-0.1815,-0.062
-2.092,-0.1795,-0.059
-2.088,-0.1795,-0.057
-2.0835,-0.1765,-0.0565
-2.087,-0.176,-0.0565
-2.096,-0.178,-0.053
-2.099,-0.178,-0.054
-2.095,-0.177,-0.0525
-2.0945,-0.174,-0.046
-2.0945,-0.1695,-0.0515
-2.0925,-0.1665,-0.05
-2.09,-0.1645,-0.0485
-2.0855,-0.164,-0.0555
-2.079,-0.163,-0.0575
-2.0745,-0.1595,-0.053
-2.073,-0.161,-0.0495
-2.0755,-0.159,-0.049
-2.0775,-0.159,-0.0535
-2.0715,-0.16,-0.0595
-2.071,-0.156,-0.058
-2.076,-0.1535,-0.0605
-2.0805,-0.1515,-0.069
-2.078,-0.1485,-0.0675
-2.0675,-0.144,-0.0565
-2.064,-0.142,-0.052
-2.0695,-0.142,-0.048
-2.077,-0.1445,-0.044
-2.065,-0.138,-0.0415
-2.057,-0.132,-0.036
-2.062,-0.132,-0.034
-2.0525,-0.1265,-0.0325
-2.046,-0.1245,-0.0295
-2.0435,-0.12,-0.0275
-2.037,-0.116,-0.028
-2.0375,-0.116,-0.026
-2.0365,-0.113,-0.0255
-2.031,-0.1115,-0.0305
-2.0305,-0.104,-0.03
-2.03,-0.1005,-0.029
-2.0325,-0.1,-0.0295
-2.0355,-0.0945,-0.0325
-2.0325,-0.088,-0.039
-2.0285,-0.085,-0.034
-2.025,-0.083,-0.028
-2.0195,-0.077,-0.031
-2.0185,-0.073,-0.03
-2.019,-0.072,-0.025
-2.0125,-0.071,-0.0235
-2.0085,-0.0675,-0.025
-2.006,-0.0645,-0.0195
-2.005,-0.0645,-0.0145
-2.005,-0.067,-0.023
-2.001,-0.068,-0.0285
-1.9965,-0.067,-0.0305
-2.001,-0.0745,-0.0305
-2.0015,-0.078,-0.0265
-1.996,-0.076,-0.0275
-2.0045,-0.0785,-0.0315
-2.01,-0.0825,-0.034
-2.01,-0.0855,-0.0355
-2.0125,-0.087,-0.03
-2.0135,-0.087,-0.0275
-2.0155,-0.0935,-0.0305
-2.025,-0.1015,-0.029
-2.029,-0.104,-0.028
-2.0325,-0.107,-0.028
-2.037,-0.1105,-0.0275
-2.0285,-0.1135,-0.0295
-2.0325,-0.1175,-0.032
-2.029,-0.116,-0.0235
-2.0235,-0.1175,-0.0215
-2.027,-0.1185,-0.025
-2.0225,-0.1125,-0.0285
-2.0235,-0.111,-0.034
-2.0235,-0.114,-0.0365
-2.0205,-0.1155,-0.0405
-2.0215,-0.1165,-0.0485
-2.027,-0.1185,-0.057
-2.0255,-0.12,-0.061
-2.021,-0.1225,-0.063
-2.016,-0.1205,-0.0625
-2.0175,-0.1215,-0.0635
-2.0215,-0.125,-0.0675
-2.0185,-0.1265,-0.0745
-2.0155,-0.1275,-0.077
-2.023,-0.133,-0.0815
-2.0335,-0.14,-0.0865
-2.0265,-0.1355,-0.083
-2.0325,-0.136,-0.0845
-2.031,-0.1305,-0.08
-2.0225,-0.13,-0.0755
-2.0315,-0.1385,-0.0795
-2.0305,-0.1335,-0.0775
-2.028,-0.134,-0.074
-2.027,-0.135,-0.074
-2.0275,-0.1365,-0.068
-2.024,-0.1355,-0.053
-2.0225,-0.136,-0.0415
-2.025,-0.1385,-0.038
-2.033,-0.1405,-0.034
-2.053,-0.1515,-0.037
-2.065,-0.1585,-0.045
-2.0695,-0.1645,-0.0505
-2.074,-0.169,-0.057
-2.075,-0.172,-0.0655
-2.0745,-0.175,-0.067
-2.084,-0.1785,-0.0695
-2.084,-0.185,-0.074
-2.0815,-0.189,-0.076
-2.089,-0.1905,-0.077
-2.0885,-0.192,-0.0725
-2.0965,-0.1935,-0.072
-2.1015,-0.198,-0.0775
-2.099,-0.203,-0.0815
-2.1015,-0.204,-0.0805
-2.102,-0.206,-0.081
-2.1045,-0.2115,-0.0815
-2.1075,-0.2115,-0.0805
-2.1045,-0.208,-0.081
-2.1,-0.209,-0.084
-2.099,-0.2115,-0.0855
-2.097,-0.213,-0.0875
-2.087,-0.206,-0.0855
-2.085,-0.2035,-0.081
-2.086,-0.205,-0.082
-2.083,-0.205,-0.0805
-2.087,-0.2055,-0.077
-2.0845,-0.202,-0.0735
-2.0795,-0.202,-0.0745
-2.0775,-0.201,-0.0735
-2.075,-0.2015,-0.0715
-2.0775,-0.2025,-0.0735
-2.0785,-0.2015,-0.075
-2.0795,-0.2015,-0.0755
-2.086,-0.205,-0.076
-2.086,-0.2085,-0.0775
-2.0825,-0.2085,-0.0765
-2.083,-0.21,-0.075
-2.0875,-0.21,-0.079
-2.0935,-0.211,-0.0805
-2.096,-0.2105,-0.079
-2.095,-0.213,-0.08
-2.093,-0.214,-0.0795
-2.092,-0.211,-0.075
-2.089,-0.21,-0.076
-2.0835,-0.2065,-0.078
-2.0865,-0.206,-0.0765
-2.0865,-0.2045,-0.0725
-2.0855,-0.202,-0.0715
-2.0915,-0.201,-0.069
-2.0885,-0.1985,-0.065
-2.092,-0.1995,-0.0665
-2.096,-0.2005,-0.066
-2.089,-0.2,-0.0675
-2.0885,-0.1995,-0.065
-2.088,-0.2015,-0.062
-2.083,-0.206,-0.067
-2.0825,-0.2035,-0.0625
-2.0875,-0.203,-0.064
-2.0835,-0.2045,-0.0695
-2.081,-0.204,-0.07
-2.092,-0.207,-0.066
-2.0965,-0.2055,-0.0655
-2.0935,-0.205,-0.069
-2.0935,-0.206,-0.065
-2.097,-0.2025,-0.0665
-2.099,-0.204,-0.065
-2.104,-0.2025,-0.0595
-2.1025,-0.2025,-0.061
-2.1015,-0.2025,-0.056
-2.1025,-0.2005,-0.056
-2.0975,-0.2005,-0.0655
-2.0935,-0.198,-0.068
-2.093,-0.1975,-0.0675
-2.096,-0.2005,-0.0685
-2.088,-0.1985,-0.068
-2.0855,-0.198,-0.07
-2.088,-0.1985,-0.071
-2.0865,-0.196,-0.0685
-2.0915,-0.199,-0.0675
-2.0935,-0.202,-0.067
-2.092,-0.203,-0.0675
-2.092,-0.203,-0.069
-2.0905,-0.202,-0.06
-2.0885,-0.2035,-0.0595
-2.0915,-0.2015,-0.07
-2.094,-0.2025,-0.0665
-2.097,-0.2035,-0.067
-2.0925,-0.2025,-0.068
-2.0885,-0.204,-0.067
-2.0895,-0.2015,-0.066
-2.0875,-0.203,-0.0655
-2.0835,-0.2015,-0.068
-2.086,-0.199,-0.066
-2.088,-0.203,-0.062
-2.0855,-0.204,-0.0635
-2.082,-0.207,-0.0595
-2.088,-0.2125,-0.0605
-2.098,-0.222,-0.074
-2.096,-0.225,-0.081
-2.1,-0.2265,-0.0875
-2.114,-0.241,-0.0965
-2.1235,-0.2615,-0.133
-2.121,-0.278,-0.155
-2.1155,-0.292,-0.1385
-2.125,-0.3135,-0.144
-2.1365,-0.3325,-0.164
-2.137,-0.3395,-0.164
-2.13,-0.3365,-0.165
-2.122,-0.3395,-0.173
-2.1225,-0.34,-0.1765
-2.121,-0.3285,-0.18
-2.116,-0.3145,-0.1825
-2.0995,-0.284,-0.1855
-2.07,-0.2425,-0.1935
-2.0495,-0.2165,-0.204
-2.0265,-0.184,-0.2015
-2.0075,-0.1385,-0.1915
-1.991,-0.0985,-0.1795
-1.9595,-0.0375,-0.1635
-1.9385,0.0265,-0.147
-1.912,0.086,-0.1345
-1.8845,0.144,-0.1175
-1.872,0.196,-0.085
-1.8365,0.272,-0.042
-1.804,0.358,0.0115
-1.7715,0.45,0.0625
-1.7535,0.514,0.1245
-1.758,0.5695,0.2015
-1.737,0.663,0.27
-1.734,0.719,0.3445
-1.7355,0.764,0.39
-1.726,0.8315,0.4115
-1.715,0.9,0.4375
-1.706,0.956,0.4675
-1.712,0.991,0.4845
-1.718,1.023,0.4745
-1.7505,1.0115,0.4725
-1.791,0.944,0.449
-1.832,0.8745,0.413
-1.8725,0.787,0.346
-1.9105,0.657,0.2355
-1.9775,0.492,0.176
-2.0465,0.2915,0.1515
-2.113,0.068,0.133
-2.194,-0.1975,0.123
-2.26,-0.4245,0.1035
-2.2945,-0.5815,0.083
-2.313,-0.666,0.0645
-2.3095,-0.6715,0.0405
-2.3005,-0.6755,0.0
-2.3035,-0.687,-0.0385
-2.295,-0.6825,-0.0705
-2.2965,-0.676,-0.107
-2.3005,-0.674,-0.134
-2.2975,-0.667,-0.1545
-2.293,-0.656,-0.1605
-2.289,-0.6315,-0.159
-2.282,-0.607,-0.159
-2.259,-0.576,-0.1515
-2.241,-0.537,-0.145
-2.2335,-0.511,-0.1385
-2.2275,-0.4865,-0.129
-2.2095,-0.451,-0.117
-2.186,-0.4085,-0.105
-2.1655,-0.372,-0.1005
-2.1525,-0.3415,-0.1025
-2.132,-0.3095,-0.098
-2.119,-0.2865,-0.0935
-2.1145,-0.27,-0.0955
-2.0965,-0.2495,-0.097
-2.091,-0.236,-0.0965
-2.091,-0.2315,-0.089
-2.0845,-0.2215,-0.081
-2.0765,-0.212,-0.071
-2.0675,-0.211,-0.06
-2.0585,-0.2035,-0.055
-2.056,-0.2015,-0.0495
-2.0575,-0.2015,-0.0475
-2.056,-0.199,-0.039
-2.0525,-0.1955,-0.033
-2.049,-0.1875,-0.033
-2.0485,-0.1915,-0.0335
-2.0465,-0.1925,-0.03
-2.0495,-0.191,-0.026
-2.049,-0.191,-0.029
-2.051,-0.1915,-0.027
-2.0505,-0.196,-0.0285
-2.049,-0.193,-0.031
-2.0595,-0.1905,-0.0295
-2.055,-0.1915,-0.0315
-2.052,-0.1905,-0.032
-2.049,-0.189,-0.034
-2.0405,-0.187,-0.035
-2.035,-0.185,-0.033
-2.029,-0.182,-0.0325
-2.03,-0.181,-0.0315
-2.035,-0.1785,-0.0335
-2.032,-0.177,-0.038
-2.026,-0.1755,-0.039
-2.028,-0.175,-0.038
-2.0345,-0.176,-0.0425
-2.0355,-0.174,-0.043
-2.034,-0.176,-0.041
-2.0405,-0.1795,-0.0435
-2.0435,-0.18,-0.0415
-2.0465,-0.182,-0.042
-2.043,-0.1845,-0.0415
-2.039,-0.1875,-0.04
-2.0435,-0.1895,-0.039
-2.036,-0.19,-0.038
-2.032,-0.189,-0.0355
-2.0375,-0.193,-0.0325
-2.0405,-0.1975,-0.0305
-2.034,-0.193,-0.029
-2.0285,-0.1885,-0.031
-2.0255,-0.188,-0.0245
-2.0225,-0.187,-0.0265
-2.027,-0.1885,-0.0355
-2.026,-0.1855,-0.036
-2.032,-0.186,-0.0455
-2.033,-0.1845,-0.045
-2.022,-0.173,-0.035
-2.0175,-0.171,-0.0355
-2.0155,-0.168,-0.039
-2.02,-0.17,-0.042
-2.0195,-0.175,-0.043
-2.0145,-0.1725,-0.0405
-2.015,-0.173,-0.0405
-2.0225,-0.176,-0.04
-2.022,-0.1765,-0.0365
-2.0205,-0.176,-0.042
-2.0205,-0.1735,-0.0415
-2.0165,-0.171,-0.0385
-2.017,-0.1725,-0.043
-2.0105,-0.1705,-0.0455
-2.006,-0.1705,-0.0455
-2.008,-0.171,-0.0455
-2.01,-0.1715,-0.045
-2.0055,-0.1725,-0.047
-2.0035,-0.1735,-0.0505
-2.007,-0.1745,-0.048
-2.007,-0.1705,-0.049
-2.0015,-0.1695,-0.052
-2.0045,-0.1695,-0.0515
-2.009,-0.169,-0.052
-2.0075,-0.17,-0.0525
-2.007,-0.17,-0.05
-2.001,-0.167,-0.0455
-2.0085,-0.1665,-0.043
-2.012,-0.1655,-0.04
-2.0115,-0.164,-0.0415
-2.0165,-0.166,-0.0405
-2.0135,-0.1645,-0.04
-2.0125,-0.162,-0.0415
-2.007,-0.1605,-0.0395
-2.0055,-0.161,-0.039
-2.0085,-0.165,-0.0365
-2.008,-0.169,-0.037
-2.005,-0.1695,-0.0395
-2.004,-0.169,-0.04
-2.007,-0.1695,-0.0395
-2.0075,-0.1715,-0.041
-2.0085,-0.1705,-0.0425
-2.0145,-0.17,-0.0425
-2.015,-0.17,-0.044
-2.0105,-0.1655,-0.0415
-2.0125,-0.1655,-0.0395
-2.006,-0.1615,-0.0425
-2.0055,-0.16,-0.0415
-2.0145,-0.165,-0.036
-2.0095,-0.1655,-0.033
-2.0035,-0.165,-0.035
-2.004,-0.1655,-0.0365
-2.0055,-0.164,-0.036
-2.007,-0.162,-0.0355
-2.0035,-0.161,-0.032
-2.0025,-0.164,-0.033
-2.0035,-0.161,-0.0355
-2.005,-0.1595,-0.0385
-2.0115,-0.1625,-0.0435
-2.008,-0.159,-0.0425
-2.0085,-0.1575,-0.0435
-2.0105,-0.1595,-0.045
-2.0055,-0.16,-0.042
-2.0035,-0.159,-0.042
-2.004,-0.1575,-0.0445
-2.0085,-0.1565,-0.0485
-2.012,-0.1595,-0.05
-2.0125,-0.159,-0.047
-2.01,-0.1565,-0.047
-2.0055,-0.156,-0.0435
-2.0035,-0.1525,-0.0395
-2.008,-0.1545,-0.0435
-2.0055,-0.1535,-0.041
-2.0015,-0.152,-0.0415
-2.004,-0.1525,-0.0415
-2.0055,-0.1505,-0.039
-2.0055,-0.1495,-0.037
-2.0,-0.15,-0.0405
-1.9925,-0.154,-0.0455
-1.99,-0.1555,-0.042
-1.9885,-0.153,-0.049
-1.988,-0.1525,-0.05
-1.991,-0.1555,-0.0445
-2.0005,-0.158,-0.045
-2.0015,-0.159,-0.0455
-1.995,-0.1605,-0.045
-1.9925,-0.1585,-0.0435
-1.9875,-0.156,-0.0445
-1.99,-0.158,-0.044
-1.9935,-0.1585,-0.043
-1.988,-0.157,-0.0405
-1.9865,-0.1575,-0.0375
-1.9815,-0.153,-0.0405
-1.9805,-0.1495,-0.0395
-1.9745,-0.152,-0.0355
-1.972,-0.152,-0.0355
-1.974,-0.1515,-0.034
-1.962,-0.1495,-0.0365
-1.959,-0.1485,-0.0405
-1.963,-0.1495,-0.0405
-1.9645,-0.1455,-0.039
-1.966,-0.142,-0.0365
-1.9675,-0.142,-0.036
-1.9615,-0.144,-0.0355
-1.9565,-0.1465,-0.038
-1.9585,-0.1475,-0.038
-1.957,-0.1455,-0.0315
-1.954,-0.1435,-0.028
-1.956,-0.145,-0.031
-1.9605,-0.1435,-0.0285
-1.958,-0.145,-0.0275
-1.9525,-0.143,-0.0375
-1.9515,-0.136,-0.0385
-1.951,-0.1355,-0.0345
-1.9525,-0.136,-0.036
-1.9555,-0.1365,-0.038
-1.946,-0.131,-0.038
-1.936,-0.1295,-0.04
-1.938,-0.1315,-0.044
-1.9375,-0.1285,-0.044
-1.9315,-0.1245,-0.0375
-1.9295,-0.119,-0.0335
-1.933,-0.1175,-0.0345
-1.931,-0.1155,-0.0335
-1.934,-0.1155,-0.031
-1.9365,-0.1165,-0.034
-1.932,-0.114,-0.0365
-1.935,-0.1125,-0.0355
-1.938,-0.112,-0.035
-1.94,-0.1105,-0.0305
-1.935,-0.1085,-0.028
-1.9325,-0.107,-0.029
-1.934,-0.102,-0.0305
-1.926,-0.0965,-0.0315
-1.921,-0.097,-0.0315
-1.9225,-0.0965,-0.0265
-1.923,-0.095,-0.0245
-1.921,-0.094,-0.026
-1.919,-0.094,-0.0225
-1.917,-0.0925,-0.028
-1.9175,-0.097,-0.0315
-1.9165,-0.1,-0.027
-1.919,-0.098,-0.024
-1.9195,-0.097,-0.018
-1.915,-0.0915,-0.0205
-1.91,-0.0885,-0.021
-1.905,-0.0855,-0.019
-1.9025,-0.083,-0.018
-1.901,-0.0825,-0.0135
-1.9045,-0.0815,-0.0145
-1.904,-0.0785,-0.0105
-1.8955,-0.073,-0.0115
-1.892,-0.068,-0.0145
-1.8885,-0.0685,-0.0145
-1.8875,-0.0685,-0.017
-1.889,-0.0655,-0.0125
-1.888,-0.0645,-0.0095
-1.882,-0.06,-0.012
-1.876,-0.057,-0.0125
-1.872,-0.0565,-0.016
-1.869,-0.053,-0.0115
-1.87,-0.0495,-0.0065
-1.8635,-0.047,-0.0105
-1.863,-0.0425,-0.0095
-1.8745,-0.041,-0.009
-1.88,-0.0395,-0.0065
-1.887,-0.04,-0.0075
-1.8935,-0.038,-0.0075
-1.888,-0.03,-0.0025
-1.8855,-0.0315,-0.003
-1.888,-0.0325,-0.002
-1.8825,-0.026,-0.0015
-1.878,-0.024,-0.0045
-1.8715,-0.019,-0.002
-1.859,-0.013,-0.0005
-1.857,-0.0125,-0.0005
-1.86,-0.012,0.0035
-1.8555,-0.012,0.003
-1.8515,-0.0105,0.0025
-1.856,-0.009,-0.001
-1.8585,-0.0065,0.005
-1.8595,-0.004,0.0125
-1.86,-0.005,0.012
-1.858,-0.006,0.0135
-1.856,-0.003,0.0045
-1.8555,0.0015,0.0075
-1.8625,0.001,0.0115
-1.87,-0.002,0.0065
-1.868,0.0015,0.005
-1.866,0.005,0.0075
-1.8615,0.009,0.016
-1.857,0.011,0.009
-1.8545,0.0115,0.002
-1.858,0.0085,0.005
-1.8545,0.008,0.0065
-1.847,0.017,0.012
-1.854,0.0175,0.02
-1.849,0.0195,0.0145
-1.8485,0.0245,0.0125
-1.851,0.02,0.0195
-1.8455,0.0245,0.0145
-1.851,0.024,0.0165
-1.8525,0.0215,0.0205
-1.8535,0.0205,0.0165
-1.8565,0.016,0.02
-1.857,0.0165,0.021
-1.8525,0.016,0.017
-1.856,0.018,0.0215
-1.858,0.016,0.0245
-1.848,0.0125,0.0215
-1.856,0.012,0.022
-1.8645,0.0085,0.023
-1.8675,0.004,0.025
-1.8795,-0.0005,0.0295
-1.881,-0.002,0.0285
-1.888,-0.009,0.0255
-1.8965,-0.0155,0.029
-1.889,-0.0175,0.023
-1.889,-0.0225,0.0165
-1.8945,-0.028,0.0175
-1.8985,-0.0395,0.0155
-1.903,-0.046,0.0165
-1.9035,-0.0475,0.0135
-1.905,-0.051,0.008
-1.908,-0.053,0.004
-1.9115,-0.0565,0.004
-1.916,-0.0635,0.0035
-1.9165,-0.067,0.001
-1.922,-0.071,-0.0045
-1.923,-0.0755,-0.004
-1.93,-0.0785,0.001
-1.941,-0.0855,-0.005
-1.9405,-0.0905,-0.004
-1.945,-0.096,-0.0045
-1.9445,-0.1,-0.01
-1.9465,-0.1015,-0.008
-1.9495,-0.1065,-0.012
-1.947,-0.11,-0.0145
-1.951,-0.1145,-0.013
-1.957,-0.1205,-0.018
-1.957,-0.1215,-0.0185
-1.953,-0.123,-0.02
-1.959,-0.127,-0.0175
-1.966,-0.131,-0.0155
-1.9725,-0.1355,-0.0225
-1.9695,-0.134,-0.02
-1.968,-0.1365,-0.019
-1.9775,-0.1425,-0.0205
-1.981,-0.146,-0.0265
-1.979,-0.1485,-0.031
-1.977,-0.149,-0.03
-1.9855,-0.155,-0.0355
-1.9885,-0.162,-0.0345
-1.988,-0.1635,-0.0365
-1.989,-0.1605,-0.039
-1.9865,-0.164,-0.04
-1.99,-0.1665,-0.0415
-1.9905,-0.163,-0.0445
-1.9935,-0.165,-0.0465
-1.9955,-0.168,-0.048
-1.9955,-0.171,-0.0485
-1.9965,-0.174,-0.046
-1.996,-0.175,-0.044
-1.993,-0.175,-0.0435
-1.994,-0.1785,-0.0455
-1.995,-0.1795,-0.046
-1.99,-0.1805,-0.0485
-1.996,-0.1845,-0.0475
-2.0015,-0.185,-0.048
-2.0085,-0.185,-0.0495
-2.012,-0.1845,-0.048
-2.011,-0.183,-0.051
-2.007,-0.1825,-0.0485
-2.001,-0.184,-0.048
-1.999,-0.1845,-0.054
-1.9995,-0.1835,-0.054
-2.0045,-0.182,-0.055
-1.9985,-0.1835,-0.0615
-1.998,-0.185,-0.059
-2.003,-0.1845,-0.0575
-2.0035,-0.1855,-0.054
-2.008,-0.1855,-0.054
-2.004,-0.187,-0.0565
-2.0055,-0.189,-0.0545
-2.012,-0.187,-0.0595
-2.0065,-0.183,-0.057
-2.0035,-0.1815,-0.0555
-2.01,-0.183,-0.053
-2.0155,-0.184,-0.052
-2.017,-0.1865,-0.052
-2.0155,-0.1855,-0.05
-2.0165,-0.184,-0.0535
-2.0235,-0.185,-0.05
-2.026,-0.185,-0.0505
-2.0215,-0.187,-0.0545
-2.023,-0.189,-0.0545
-2.021,-0.188,-0.0535
-2.0125,-0.1875,-0.0555
-2.019,-0.192,-0.0565
-2.0225,-0.194,-0.061
-2.0235,-0.193,-0.062
-2.0245,-0.195,-0.0565
-2.021,-0.1945,-0.0575
-2.0235,-0.195,-0.06
-2.027,-0.2005,-0.0635
-2.0255,-0.2005,-0.0635
-2.0245,-0.1975,-0.061
-2.031,-0.197,-0.0585
-2.026,-0.195,-0.0545
-2.0195,-0.1965,-0.055
-2.0175,-0.195,-0.0545
-2.0185,-0.1945,-0.0525
-2.023,-0.1955,-0.053
-2.022,-0.197,-0.0565
-2.0135,-0.196,-0.061
-2.013,-0.195,-0.0565
-2.019,-0.197,-0.0545
-2.0145,-0.1935,-0.059
-2.013,-0.1935,-0.0615
-2.0165,-0.1965,-0.062
-2.019,-0.196,-0.0595
-2.02,-0.196,-0.0565
-2.023,-0.1975,-0.0535
-2.022,-0.197,-0.0535
-2.0235,-0.1965,-0.0545
-2.025,-0.198,-0.0555
-2.0195,-0.1985,-0.0555
-2.0195,-0.2,-0.0585
-2.0205,-0.202,-0.06
-2.0205,-0.201,-0.058
-2.016,-0.2005,-0.054
-2.016,-0.2035,-0.0565
-2.021,-0.204,-0.0575
-2.018,-0.2035,-0.0545
-2.0095,-0.2035,-0.0555
-2.0125,-0.2085,-0.0535
-2.016,-0.207,-0.0515
-2.0135,-0.204,-0.051
-2.0175,-0.2075,-0.051
-2.017,-0.207,-0.051
-2.0155,-0.2075,-0.053
-2.018,-0.208,-0.053
-2.018,-0.2075,-0.048
-2.022,-0.209,-0.048
-2.0225,-0.209,-0.048
-2.015,-0.208,-0.0465
-2.0085,-0.2095,-0.0455
-2.0085,-0.2095,-0.0425
-2.011,-0.209,-0.04
-2.012,-0.21,-0.0385
-2.0125,-0.2085,-0.0355
-2.008,-0.2085,-0.041
-2.0095,-0.2075,-0.041
-2.0125,-0.208,-0.036
-2.012,-0.2075,-0.0385
-2.0175,-0.2055,-0.0385
-2.0235,-0.2045,-0.0375
-2.0175,-0.2035,-0.036
-2.0125,-0.203,-0.0365
-2.0135,-0.201,-0.0385
-2.0085,-0.2,-0.0375
-2.005,-0.2015,-0.0355
-2.005,-0.203,-0.0355
-2.0075,-0.204,-0.0335
-2.01,-0.2065,-0.03
-2.017,-0.207,-0.0315
-2.0215,-0.208,-0.0325
-2.0235,-0.209,-0.032
-2.023,-0.2095,-0.0305
-2.0195,-0.21,-0.028
-2.023,-0.209,-0.029
-2.022,-0.207,-0.032
-2.022,-0.2055,-0.0325
-2.0235,-0.206,-0.029
-2.0125,-0.2045,-0.031
-2.011,-0.2055,-0.0325
-2.0195,-0.202,-0.029
-2.0185,-0.201,-0.032
-2.0165,-0.2,-0.0335
-2.014,-0.2,-0.0315
-2.0125,-0.2015,-0.0305
-2.0125,-0.201,-0.03
-2.009,-0.2015,-0.0305
-2.0055,-0.1975,-0.03
-2.009,-0.1965,-0.03
-2.017,-0.197,-0.032
-2.0185,-0.1985,-0.0325
-2.021,-0.2005,-0.0315
-2.0235,-0.201,-0.032
-2.021,-0.1995,-0.031
-2.0215,-0.1985,-0.027
-2.019,-0.197,-0.0235
-2.0155,-0.1935,-0.023
-2.0125,-0.193,-0.021
-2.0045,-0.1935,-0.019
-2.007,-0.195,-0.0225
-2.011,-0.1965,-0.0225
-2.0065,-0.1955,-0.0225
-2.0065,-0.195,-0.0235
-2.0095,-0.194,-0.025
-2.0085,-0.1905,-0.027
-2.01,-0.19,-0.024
-2.0155,-0.19,-0.021
-2.0155,-0.189,-0.0225
-2.0185,-0.1925,-0.023
-2.018,-0.193,-0.025
-2.014,-0.1895,-0.026
-2.017,-0.1885,-0.021
-2.0175,-0.1855,-0.0195
-2.0185,-0.189,-0.02
-2.0205,-0.1935,-0.0205
-2.0155,-0.1885,-0.02
-2.0095,-0.1885,-0.0205
-2.012,-0.187,-0.021
-2.008,-0.186,-0.0215
-2.003,-0.189,-0.023
-2.0075,-0.19,-0.0245
-2.007,-0.191,-0.0265
-2.0035,-0.1895,-0.0265
-2.002,-0.189,-0.027
-2.006,-0.188,-0.028
-2.01,-0.1875,-0.0275
-2.013,-0.1875,-0.0255
-2.0165,-0.1865,-0.0255
-2.0155,-0.1885,-0.0265
-2.0095,-0.1875,-0.0285
-2.0035,-0.1855,-0.029
-2.0045,-0.188,-0.0255
-2.0075,-0.189,-0.025
-2.0095,-0.188,-0.024
-2.009,-0.1855,-0.021
-2.0085,-0.183,-0.0205
-2.0065,-0.1815,-0.0195
-2.0045,-0.182,-0.022
-2.0025,-0.182,-0.023
-2.0035,-0.182,-0.02
-2.013,-0.1835,-0.023
-2.0175,-0.1835,-0.025
-2.0165,-0.186,-0.0255
-2.014,-0.1855,-0.026
-2.011,-0.1805,-0.025
-2.0085,-0.183,-0.0265
-2.0045,-0.183,-0.023
-2.0025,-0.181,-0.0235
-2.004,-0.1835,-0.025
-2.001,-0.1825,-0.0215
-1.9965,-0.184,-0.023
-1.9965,-0.185,-0.02
-1.9975,-0.183,-0.0155
-1.9985,-0.182,-0.015
-2.0005,-0.1845,-0.0155
-2.003,-0.187,-0.0145
-2.0015,-0.187,-0.016
-2.005,-0.188,-0.0175
-2.0075,-0.1855,-0.016
-2.0045,-0.1865,-0.015
-2.009,-0.1875,-0.0155
-2.0095,-0.1865,-0.019
-2.004,-0.1885,-0.022
-2.003,-0.186,-0.0225
-2.009,-0.184,-0.0215
-2.0095,-0.1845,-0.0225
-2.008,-0.1855,-0.02
-2.0025,-0.1855,-0.018
-1.9965,-0.1855,-0.0195
-1.9965,-0.187,-0.0205
-1.989,-0.189,-0.0225
-1.9895,-0.1875,-0.019
-1.9965,-0.1865,-0.018
-1.998,-0.188,-0.016
-2.0005,-0.1895,-0.016
-2.007,-0.1915,-0.017
-2.0095,-0.191,-0.016
-2.0105,-0.1915,-0.0165
-2.016,-0.1945,-0.0155
-2.0135,-0.194,-0.0155
-2.0085,-0.192,-0.0165
-2.003,-0.191,-0.017
-1.9985,-0.1895,-0.018
-1.9985,-0.1875,-0.0215
-1.995,-0.1855,-0.021
-1.992,-0.1855,-0.0205
-1.995,-0.1855,-0.0205
-2.002,-0.184,-0.017
-2.0035,-0.1845,-0.017
-2.0005,-0.183,-0.02
-1.997,-0.182,-0.021
-2.001,-0.183,-0.019
-2.0035,-0.183,-0.0205
-2.0025,-0.183,-0.0245
-2.006,-0.1815,-0.024
-2.0065,-0.1815,-0.024
-2.0055,-0.18,-0.0225
-2.0065,-0.18,-0.023
-2.0055,-0.1795,-0.0265
-2.0025,-0.179,-0.026
-2.004,-0.182,-0.0245
-2.0055,-0.1815,-0.026
-2.0055,-0.182,-0.028
-2.0095,-0.1815,-0.028
-2.009,-0.182,-0.026
-2.005,-0.181,-0.027
-2.0055,-0.181,-0.0275
-2.0105,-0.1835,-0.0255
-2.016,-0.1815,-0.025
-2.015,-0.181,-0.025
-2.009,-0.181,-0.027
-2.008,-0.1805,-0.0265
-2.0115,-0.1805,-0.0255
-2.0095,-0.181,-0.023
-2.0075,-0.1805,-0.022
-2.0055,-0.1795,-0.0255
-2.003,-0.18,-0.025
-2.0015,-0.182,-0.023
-2.0065,-0.1845,-0.021
-2.0165,-0.1835,-0.0205
-2.0155,-0.182,-0.022
-2.0075,-0.183,-0.026
-2.0035,-0.182,-0.027
-2.0055,-0.1805,-0.029
-2.0075,-0.181,-0.031
-2.009,-0.18,-0.0315
-2.01,-0.1815,-0.031
-2.0095,-0.1825,-0.029
-2.0105,-0.183,-0.0315
-2.01,-0.184,-0.0325
-2.003,-0.186,-0.032
-2.0025,-0.188,-0.0315
-2.0055,-0.1885,-0.032
-2.003,-0.1895,-0.0315
-2.0015,-0.187,-0.0285
-2.0,-0.187,-0.0295
-1.9965,-0.1855,-0.0295
-1.9935,-0.1855,-0.03
-1.9915,-0.1835,-0.0305
-1.989,-0.1825,-0.03
-1.993,-0.186,-0.0305
-1.989,-0.181,-0.0295
-1.987,-0.1785,-0.0305
-1.994,-0.1785,-0.0285
-1.996,-0.1785,-0.0305
-2.003,-0.1805,-0.0325
-2.0075,-0.18,-0.0295
-2.005,-0.177,-0.033
-2.004,-0.1775,-0.034
-2.001,-0.179,-0.0345
-1.997,-0.179,-0.035
-1.9975,-0.1805,-0.031
-1.996,-0.181,-0.031
-1.9955,-0.1795,-0.03
-1.9955,-0.1785,-0.026
-1.996,-0.182,-0.025
-1.9935,-0.183,-0.0295
-1.992,-0.1805,-0.0315
-1.994,-0.182,-0.027
-1.998,-0.183,-0.026
-2.0035,-0.1845,-0.0265
-2.0015,-0.1845,-0.025
-2.0005,-0.188,-0.0285
-1.998,-0.1885,-0.0325
-1.992,-0.188,-0.034
-1.9925,-0.1895,-0.035
-1.991,-0.1895,-0.035
-1.992,-0.192,-0.0355
-1.998,-0.1925,-0.035
-2.0005,-0.1925,-0.0365
-2.0005,-0.194,-0.0365
-2.0005,-0.1925,-0.034
-1.9995,-0.1915,-0.0335
-1.9965,-0.191,-0.032
-1.997,-0.1915,-0.035
-2.002,-0.1935,-0.0345
-2.001,-0.193,-0.034
-2.0,-0.191,-0.033
-1.998,-0.1895,-0.031
-1.997,-0.1875,-0.036
-2.002,-0.187,-0.034
-1.9955,-0.1855,-0.0315
-1.9895,-0.183,-0.037
-1.9885,-0.184,-0.0385
-1.9875,-0.183,-0.0385
-1.9905,-0.1835,-0.0375
-1.9925,-0.1855,-0.0365
-1.993,-0.186,-0.039
-1.994,-0.1875,-0.036
-1.995,-0.188,-0.032
-1.992,-0.1855,-0.0315
-1.9955,-0.1855,-0.0325
-1.9955,-0.184,-0.0325
-1.9945,-0.1805,-0.0305
-1.9975,-0.1815,-0.0295
-1.995,-0.183,-0.032
-1.994,-0.185,-0.0355
-1.9945,-0.185,-0.033
-1.9915,-0.181,-0.031
-1.989,-0.1815,-0.031
-1.991,-0.1835,-0.028
-1.986,-0.1835,-0.03
-1.9845,-0.182,-0.0295
-1.987,-0.186,-0.0305
-1.9855,-0.1875,-0.032
-1.986,-0.185,-0.0315
-1.989,-0.187,-0.032
-1.9925,-0.188,-0.031
-1.9935,-0.188,-0.03
-1.9985,-0.186,-0.028
-2.0055,-0.186,-0.029
-2.0135,-0.1845,-0.028
-2.0185,-0.1835,-0.0275
-2.0155,-0.185,-0.0245
-2.007,-0.187,-0.026
-2.003,-0.1895,-0.0305
-2.0,-0.186,-0.0285
-1.996,-0.1835,-0.029
-1.992,-0.1835,-0.0295
-1.9915,-0.184,-0.0305
-2.002,-0.185,-0.031
-1.998,-0.1845,-0.032
-1.995,-0.186,-0.034
-2.0055,-0.187,-0.0325
-2.0125,-0.1875,-0.0305
-2.0125,-0.1895,-0.03
-2.0065,-0.191,-0.0255
-2.005,-0.189,-0.0245
-2.007,-0.188,-0.0275
-2.0065,-0.1865,-0.028
-2.0005,-0.183,-0.028
-2.0025,-0.183,-0.027
-2.0075,-0.1845,-0.026
-2.008,-0.1835,-0.026
-2.0155,-0.183,-0.0265
-2.018,-0.183,-0.0235
-2.0165,-0.182,-0.027
-2.016,-0.1815,-0.0265
-2.011,-0.1795,-0.0255
-2.009,-0.18,-0.0295
-2.0125,-0.1805,-0.0255
-2.01,-0.18,-0.024
-2.0035,-0.1805,-0.0245
-2.0025,-0.1805,-0.029
-2.0025,-0.181,-0.0325
-2.003,-0.18,-0.0335
-2.0075,-0.1805,-0.034
-2.0115,-0.181,-0.0345
-2.013,-0.1785,-0.035
-2.0125,-0.1765,-0.0345
-2.009,-0.176,-0.032
-2.014,-0.179,-0.0315
-2.018,-0.1795,-0.0305
-2.018,-0.18,-0.027
-2.0195,-0.1805,-0.0265
-2.0175,-0.181,-0.0255
-2.016,-0.183,-0.0255
-2.014,-0.181,-0.0225
-2.0135,-0.179,-0.0195
-2.0085,-0.1785,-0.0195
-2.011,-0.178,-0.0185
-2.012,-0.174,-0.0175
-2.001,-0.172,-0.022
-2.001,-0.171,-0.0245
-1.9975,-0.169,-0.025
-1.9925,-0.166,-0.029
-1.9925,-0.163,-0.028
-1.9945,-0.164,-0.0285
-2.0025,-0.164,-0.0295
-2.011,-0.1605,-0.0305
-2.0095,-0.1545,-0.029
-2.003,-0.1505,-0.031
-2.003,-0.147,-0.0335
-1.9985,-0.146,-0.0305
-1.993,-0.146,-0.0275
-1.991,-0.14,-0.021
-1.9895,-0.1345,-0.0205
-1.987,-0.135,-0.02
-1.984,-0.1355,-0.0155
-1.9815,-0.1355,-0.017
-1.983,-0.136,-0.0165
-1.984,-0.1335,-0.011
-1.9775,-0.1295,-0.009
-1.9775,-0.1265,-0.0095
-1.9795,-0.124,-0.008
-1.981,-0.124,-0.007
-1.9845,-0.1235,-0.0045
-1.9845,-0.12,-0.006
-1.983,-0.116,-0.008
-1.9845,-0.1155,-0.0095
-1.98,-0.1115,-0.016
-1.9705,-0.108,-0.0185
-1.962,-0.1035,-0.019
-1.9505,-0.098,-0.015
-1.9475,-0.0945,-0.0105
-1.9435,-0.0875,-0.011
-1.941,-0.0875,-0.0145
-1.944,-0.0845,-0.0155
-1.943,-0.079,-0.0135
-1.9385,-0.075,-0.0135
-1.9375,-0.0725,-0.01
-1.9385,-0.0725,-0.0045
-1.933,-0.0695,-0.0015
-1.9305,-0.073,-0.005
-1.933,-0.075,-0.002
-1.9355,-0.073,0.0005
-1.9395,-0.0775,0.0005
-1.9425,-0.0795,-0.001
-1.945,-0.083,-0.007
-1.948,-0.088,-0.0055
-1.95,-0.0905,-0.004
-1.955,-0.093,0.001
-1.953,-0.094,0.001
-1.948,-0.098,-0.0065
-1.9495,-0.103,0.0
-1.9465,-0.106,-0.001
-1.9455,-0.109,-0.008
-1.9545,-0.113,-0.0055
-1.9555,-0.118,-0.005
-1.946,-0.119,0.0
-1.948,-0.1235,0.0
-1.952,-0.1265,0.002
-1.9485,-0.126,0.0055
-1.945,-0.124,0.0025
-1.9425,-0.12,0.0
-1.944,-0.1235,-0.005
-1.9475,-0.1285,-0.008
-1.9515,-0.1315,-0.016
-1.9555,-0.133,-0.0175
-1.957,-0.1325,-0.016
-1.9555,-0.1345,-0.0195
-1.9565,-0.137,-0.02
-1.9575,-0.1355,-0.018
-1.955,-0.1345,-0.0205
-1.955,-0.137,-0.026
-1.955,-0.1365,-0.0255
-1.952,-0.1365,-0.03
-1.952,-0.1425,-0.0365
-1.951,-0.1435,-0.041
-1.9485,-0.1435,-0.039
-1.951,-0.144,-0.035
-1.9525,-0.143,-0.036
-1.9565,-0.147,-0.037
-1.9575,-0.147,-0.0375
-1.961,-0.144,-0.035
-1.9715,-0.142,-0.0305
-1.9755,-0.1435,-0.025
-1.9735,-0.144,-0.02
-1.9745,-0.146,-0.015
-1.9865,-0.1495,-0.0075
-1.9935,-0.155,-0.004
-2.0005,-0.165,-0.0065
-2.0085,-0.1735,-0.0095
-2.023,-0.178,-0.0145
-2.0365,-0.1815,-0.0195
-2.0375,-0.183,-0.0255
-2.0355,-0.183,-0.028
-2.034,-0.1855,-0.0295
-2.0305,-0.189,-0.032
-2.031,-0.1925,-0.032
-2.039,-0.1965,-0.031
-2.038,-0.198,-0.038
-2.04,-0.202,-0.041
-2.044,-0.2045,-0.0385
-2.0435,-0.2045,-0.0405
-2.044,-0.2045,-0.044
-2.0425,-0.2025,-0.045
-2.043,-0.203,-0.0405
-2.0445,-0.2045,-0.0435
-2.0475,-0.205,-0.0475
-2.045,-0.2045,-0.0485
-2.043,-0.206,-0.049
-2.044,-0.207,-0.049
-2.0455,-0.207,-0.049
-2.044,-0.205,-0.0455
-2.0435,-0.2065,-0.049
-2.0435,-0.206,-0.047
-2.0455,-0.205,-0.044
-2.0455,-0.2065,-0.0455
-2.0435,-0.203,-0.042
-2.0495,-0.202,-0.042
-2.047,-0.202,-0.0435
-2.0525,-0.2005,-0.044
-2.06,-0.202,-0.043
-2.053,-0.2015,-0.0445
-2.05,-0.201,-0.0425
-2.051,-0.201,-0.041
-2.051,-0.2,-0.0405
-2.0485,-0.2045,-0.043
-2.049,-0.207,-0.0455
-2.05,-0.208,-0.043
-2.051,-0.2065,-0.042
-2.0485,-0.206,-0.0385
-2.0475,-0.2075,-0.039
-2.0505,-0.2085,-0.04
-2.051,-0.2115,-0.04
-2.0505,-0.211,-0.0425
-2.051,-0.2115,-0.0405
-2.0495,-0.212,-0.0415
-2.0455,-0.2105,-0.043
-2.053,-0.2115,-0.0405
-2.0525,-0.2095,-0.0445
-2.055,-0.21,-0.0465
-2.066,-0.212,-0.046
-2.0595,-0.2115,-0.048
-2.0565,-0.2105,-0.0475
-2.056,-0.21,-0.0465
-2.0545,-0.2115,-0.0455
-2.0535,-0.21,-0.048
-2.054,-0.21,-0.0475
-2.051,-0.2085,-0.0465
-2.048,-0.209,-0.045
-2.0525,-0.2105,-0.0415
-2.0535,-0.208,-0.0415
-2.051,-0.2095,-0.041
-2.0505,-0.21,-0.0405
-2.049,-0.211,-0.0415
-2.0445,-0.212,-0.044
-2.0435,-0.2125,-0.042
-2.0405,-0.2155,-0.0395
-2.0415,-0.216,-0.0415
-2.0395,-0.2155,-0.0435
-2.038,-0.216,-0.045
-2.046,-0.217,-0.0455
-2.0455,-0.216,-0.045
-2.0485,-0.2135,-0.0455
-2.0555,-0.214,-0.0435
-2.0585,-0.213,-0.04
-2.061,-0.2115,-0.04
-2.0595,-0.212,-0.0405
-2.055,-0.212,-0.0415
-2.0545,-0.2105,-0.04
-2.059,-0.2105,-0.036
-2.055,-0.209,-0.035
-2.054,-0.208,-0.0335
-2.055,-0.2075,-0.032
-2.053,-0.2065,-0.0335
-2.056,-0.2045,-0.036
-2.0545,-0.203,-0.033
-2.048,-0.204,-0.03
-2.0425,-0.2015,-0.03
-2.04,-0.2005,-0.0285
-2.036,-0.2,-0.03
-2.037,-0.2005,-0.0305
-2.0335,-0.1985,-0.0285
-2.0265,-0.1975,-0.0305
-2.0305,-0.2,-0.0315
-2.0385,-0.2015,-0.0325
-2.047,-0.204,-0.0355
-2.0545,-0.21,-0.0395
-2.061,-0.2195,-0.0465
-2.0695,-0.226,-0.0515
-2.078,-0.238,-0.06
-2.082,-0.2565,-0.069
-2.085,-0.2745,-0.083
-2.0885,-0.296,-0.104
-2.086,-0.313,-0.1155
-2.0845,-0.324,-0.118
-2.0845,-0.329,-0.1195
-2.0815,-0.3285,-0.1245
-2.0835,-0.334,-0.134
-2.0815,-0.336,-0.135
-2.063,-0.3255,-0.1415
-2.0515,-0.307,-0.1485
-2.0365,-0.2725,-0.144
-2.007,-0.2315,-0.1535
-1.991,-0.202,-0.164
-1.9755,-0.164,-0.1595
-1.9615,-0.1205,-0.1455
-1.957,-0.081,-0.131
-1.9335,-0.0175,-0.113
-1.902,0.0495,-0.0925
-1.879,0.104,-0.079
-1.855,0.16,-0.057
-1.833,0.219,-0.0235
-1.806,0.291,0.0205
-1.771,0.3795,0.075
-1.7365,0.474,0.1235
-1.721,0.537,0.1865
-1.713,0.5925,0.263
-1.6925,0.6855,0.3315
-1.6915,0.749,0.4095
-1.695,0.788,0.4585
-1.688,0.8455,0.479
-1.6785,0.912,0.5015
-1.666,0.97,0.5285
-1.671,1.0025,0.539
-1.687,1.0335,0.525
-1.7135,1.026,0.5275
-1.755,0.958,0.5035
-1.7935,0.8875,0.463
-1.8285,0.7995,0.39
-1.867,0.6695,0.2805
-1.9205,0.511,0.223
-1.987,0.316,0.1975
-2.0535,0.0945,0.1755
-2.136,-0.1715,0.156
-2.2055,-0.4055,0.131
-2.2425,-0.568,0.108
-2.256,-0.651,0.0895
-2.2515,-0.652,0.0595
-2.251,-0.655,0.0195
-2.249,-0.6615,-0.014
-2.246,-0.6545,-0.0465
-2.2495,-0.644,-0.0775
-2.254,-0.6395,-0.102
-2.255,-0.638,-0.1255
-2.2535,-0.6265,-0.134
-2.252,-0.6015,-0.131
-2.253,-0.577,-0.127
-2.2365,-0.544,-0.121
-2.21,-0.507,-0.1095
-2.195,-0.48,-0.0965
-2.181,-0.451,-0.0855
-2.16,-0.4155,-0.074
-2.13,-0.3785,-0.071
-2.1095,-0.342,-0.0645
-2.1005,-0.3145,-0.0565
-2.088,-0.2945,-0.0545
-2.0765,-0.2745,-0.053
-2.0655,-0.2565,-0.0545
-2.0565,-0.24,-0.0535
-2.0505,-0.2305,-0.0535
-2.045,-0.2205,-0.048
-2.042,-0.212,-0.035
-2.0375,-0.207,-0.025
-2.0315,-0.2025,-0.0175
-2.03,-0.201,-0.011
-2.0255,-0.196,-0.011
-2.029,-0.1915,-0.008
-2.026,-0.187,-0.001
-2.0185,-0.1825,0.0025
-2.018,-0.179,0.0085
-2.0115,-0.1755,0.0125
-2.008,-0.1755,0.0115
-2.0075,-0.176,0.0125
-2.009,-0.176,0.01
-2.0085,-0.1755,0.0075
-2.0055,-0.175,0.0085
-2.005,-0.175,0.0055
-2.015,-0.176,0.0055
-2.021,-0.177,0.0055
-2.0175,-0.175,0.002
-2.02,-0.177,-0.0015
-2.017,-0.178,-0.001
-2.014,-0.176,0.0035
-2.0125,-0.1785,0.0035
-2.0115,-0.178,0.0035
-2.013,-0.175,0.004
-2.0135,-0.174,0.0025
-2.0135,-0.1735,0.0015
-2.015,-0.1735,0.0
-2.021,-0.1725,0.0
-2.027,-0.1725,0.005
-2.029,-0.1715,0.006
-2.027,-0.17,0.0045
-2.026,-0.169,0.006
-2.022,-0.1665,0.0055
-2.02,-0.168,0.0075
-2.017,-0.1675,0.007
-2.0155,-0.1635,0.0065
-2.0175,-0.163,0.0065
-2.0155,-0.1615,0.005
-2.013,-0.16,0.0055
-2.0105,-0.161,0.0055
-2.01,-0.161,0.0055
-2.001,-0.16,0.006
-2.0005,-0.162,0.0065
-2.0065,-0.164,0.0065
-2.0065,-0.163,0.005
-2.007,-0.1635,0.0035
-2.006,-0.164,0.002
-2.007,-0.165,0.004
-2.01,-0.164,0.0085
-2.013,-0.1625,0.0095
-2.0095,-0.1605,0.01
-2.0075,-0.1605,0.0095
-2.005,-0.1615,0.0095
-2.001,-0.1595,0.01
-1.9995,-0.1605,0.0095
-1.998,-0.16,0.011
-1.998,-0.1595,0.0115
-1.995,-0.158,0.008
-1.9925,-0.1565,0.0035
-1.9895,-0.154,0.0045
-1.9925,-0.151,0.0065
-1.995,-0.1515,0.006
-1.997,-0.1485,0.0045
-2.004,-0.1465,0.0035
-2.0065,-0.1445,0.0045
-2.0075,-0.144,0.005
-2.011,-0.1445,0.008
-2.015,-0.1435,0.0095
-2.0075,-0.1455,0.0095
-2.0025,-0.1445,0.0105
-2.0015,-0.1435,0.01
-1.994,-0.1425,0.01
-1.9925,-0.141,0.0085
-1.992,-0.14,0.0085
-1.9885,-0.138,0.01
-1.995,-0.1405,0.0105
-2.0,-0.1415,0.011
-2.0005,-0.1425,0.0095
-2.0055,-0.1445,0.0095
-2.0045,-0.144,0.0075
-2.0105,-0.1435,0.0045
-2.0155,-0.144,0.004
-2.0075,-0.142,0.003
-2.0025,-0.1415,0.0
-2.0035,-0.145,0.0
-2.001,-0.144,0.003
-1.9975,-0.1445,0.0025
-2.0,-0.1465,0.0025
-1.997,-0.145,0.0035
-1.9985,-0.146,0.0035
-1.9995,-0.147,0.004
-1.996,-0.146,0.0025
-1.997,-0.144,0.0015
-1.995,-0.143,0.0005
-1.9915,-0.142,-0.0015
-1.993,-0.143,-0.0005
-1.9935,-0.1415,0.001
-1.987,-0.1405,0.0
-1.988,-0.142,-0.001
-1.985,-0.141,-0.0025
-1.983,-0.143,0.0015
-1.9885,-0.143,0.006
-1.985,-0.143,0.0035
-1.985,-0.14,0.002
-1.987,-0.137,0.003
-1.9825,-0.138,0.0015
-1.9815,-0.1375,0.0015
-1.983,-0.1385,0.0055
-1.9805,-0.1365,0.004
-1.9835,-0.1355,0.0045
-1.9915,-0.134,0.006
-1.9925,-0.134,0.0075
-1.989,-0.1355,0.01
-1.9895,-0.1365,0.008
-1.986,-0.1375,0.0085
-1.9885,-0.137,0.01
-1.993,-0.1375,0.0065
-1.9855,-0.1375,0.0065
-1.9835,-0.136,0.0065
-1.9835,-0.1335,0.002
-1.9815,-0.134,0.003
-1.984,-0.136,0.007
-1.98,-0.136,0.008
-1.975,-0.1355,0.0075
-1.9765,-0.1375,0.0045
-1.9785,-0.1385,0.005
-1.9785,-0.14,0.0095
-1.978,-0.139,0.0105
-1.974,-0.136,0.0105
-1.9725,-0.136,0.0125
-1.972,-0.135,0.0115
-1.972,-0.135,0.0105
-1.974,-0.134,0.011
-1.9735,-0.134,0.0125
-1.9705,-0.1305,0.0145
-1.9685,-0.1275,0.0165
-1.968,-0.1295,0.018
-1.9655,-0.1285,0.017
-1.9655,-0.129,0.0165
-1.966,-0.1265,0.014
-1.9635,-0.125,0.012
-1.9635,-0.125,0.016
-1.963,-0.126,0.017
-1.9655,-0.127,0.014
-1.973,-0.129,0.012
-1.966,-0.1295,0.0125
-1.9595,-0.127,0.011
-1.9575,-0.1265,0.0125
-1.9535,-0.124,0.0145
-1.9535,-0.1225,0.0155
-1.9515,-0.1225,0.0175
-1.9515,-0.12,0.0135
-1.9495,-0.1185,0.0145
-1.949,-0.1205,0.018
-1.9495,-0.121,0.0185
-1.9575,-0.119,0.0195
-1.968,-0.1195,0.0175
-1.969,-0.118,0.0175
-1.9675,-0.114,0.019
-1.9635,-0.113,0.017
-1.9675,-0.1115,0.015
-1.9675,-0.11,0.0165
-1.9585,-0.1105,0.02
-1.953,-0.1075,0.0225
-1.957,-0.1065,0.0225
-1.953,-0.1065,0.0185
-1.9465,-0.103,0.015
-1.949,-0.101,0.0185
-1.9485,-0.099,0.022
-1.9455,-0.0955,0.0215
-1.941,-0.094,0.0235
-1.9385,-0.0915,0.024
-1.9375,-0.0905,0.0235
-1.937,-0.0905,0.0245
-1.9355,-0.088,0.026
-1.933,-0.0895,0.0265
-1.933,-0.088,0.0235
-1.9305,-0.0855,0.0245
-1.929,-0.085,0.0245
-1.9315,-0.082,0.0235
-1.9285,-0.0795,0.0235
-1.9275,-0.08,0.0255
-1.927,-0.0805,0.028
-1.922,-0.08,0.0255
-1.924,-0.08,0.0255
-1.92,-0.078,0.0265
-1.916,-0.0755,0.0285
-1.9225,-0.0755,0.0295
-1.922,-0.0745,0.0325
-1.9175,-0.0735,0.034
-1.9145,-0.0705,0.0335
-1.911,-0.0675,0.037
-1.91,-0.066,0.0345
-1.913,-0.063,0.0345
-1.9145,-0.0615,0.0345
-1.9135,-0.0615,0.036
-1.91,-0.06,0.0385
-1.9055,-0.059,0.037
-1.899,-0.056,0.0365
-1.894,-0.053,0.0355
-1.8945,-0.053,0.0375
-1.892,-0.0505,0.0395
-1.8935,-0.0485,0.0415
-1.895,-0.0465,0.043
-1.894,-0.0425,0.0415
-1.889,-0.0385,0.0415
-1.89,-0.0355,0.0425
-1.8935,-0.033,0.0455
-1.884,-0.029,0.048
-1.885,-0.0275,0.0505
-1.897,-0.027,0.0515
-1.9005,-0.0225,0.052
-1.897,-0.0205,0.053
-1.8935,-0.0195,0.054
-1.885,-0.0185,0.0545
-1.88,-0.017,0.056
-1.8815,-0.016,0.0605
-1.8755,-0.0155,0.0565
-1.872,-0.0135,0.057
-1.8645,-0.01,0.0605
-1.861,-0.007,0.06
-1.86,-0.0055,0.0635
-1.8595,-0.003,0.065
-1.8605,-0.0005,0.064
-1.856,0.001,0.0635
-1.856,0.0005,0.0685
-1.856,0.003,0.068
-1.86,0.006,0.066
-1.8635,0.0065,0.0685
-1.864,0.007,0.069
-1.863,0.0095,0.0705
-1.861,0.013,0.0695
-1.856,0.013,0.0685
-1.851,0.014,0.0715
-1.844,0.0155,0.0725
-1.8375,0.018,0.073
-1.836,0.0215,0.0745
-1.832,0.023,0.076
-1.8335,0.026,0.0765
-1.8345,0.0275,0.0755
-1.8355,0.0275,0.0795
-1.835,0.0285,0.083
-1.8375,0.0315,0.0855
-1.8505,0.032,0.088
-1.8535,0.0325,0.086
-1.849,0.034,0.086
-1.8455,0.037,0.087
-1.847,0.0385,0.09
-1.847,0.0395,0.0915
-1.8455,0.04,0.0885
-1.8455,0.038,0.092
-1.8445,0.039,0.0925
-1.845,0.0375,0.0905
-1.8475,0.035,0.0915
-1.844,0.0345,0.0905
-1.8425,0.0315,0.089
-1.849,0.028,0.087
-1.8515,0.0245,0.0875
-1.856,0.0205,0.084
-1.8575,0.0175,0.079
-1.8585,0.015,0.079
-1.859,0.0105,0.0785
-1.864,0.0055,0.0775
-1.876,0.0005,0.078
-1.8815,-0.0055,0.078
-1.8825,-0.008,0.0735
-1.8825,-0.011,0.068
-1.8865,-0.0135,0.0655
-1.8885,-0.0175,0.067
-1.8905,-0.0225,0.068
-1.895,-0.0285,0.066
-1.8985,-0.0285,0.0635
-1.8995,-0.0315,0.0595
-1.9015,-0.039,0.0575
-1.905,-0.041,0.057
-1.908,-0.0445,0.0555
-1.9175,-0.0505,0.0535
-1.9205,-0.0545,0.049
-1.917,-0.059,0.045
-1.919,-0.063,0.0415
-1.923,-0.0655,0.041
-1.9285,-0.0725,0.038
-1.9305,-0.077,0.037
-1.9345,-0.077,0.039
-1.943,-0.0825,0.037
-1.947,-0.087,0.036
-1.9485,-0.089,0.0365
-1.953,-0.094,0.0365
-1.96,-0.0985,0.0355
-1.9705,-0.1025,0.035
-1.9795,-0.1055,0.0325
-1.9815,-0.1085,0.031
-1.982,-0.1115,0.0315
-1.982,-0.1145,0.0315
-1.9775,-0.119,0.0315
-1.9765,-0.121,0.029
-1.9815,-0.1255,0.0255
-1.9815,-0.1285,0.023
-1.979,-0.1295,0.021
-1.979,-0.134,0.019
-1.982,-0.1345,0.018
-1.9855,-0.137,0.018
-1.9825,-0.138,0.0195
-1.9835,-0.1395,0.017
-1.9905,-0.1435,0.017
-1.9885,-0.1435,0.018
-1.99,-0.145,0.015
-1.9955,-0.145,0.013
-1.997,-0.146,0.014
-1.993,-0.148,0.0165
-1.9905,-0.148,0.015
-1.996,-0.149,0.0135
-1.999,-0.15,0.0135
-1.999,-0.1525,0.011
-1.995,-0.1565,0.0105
-1.993,-0.1585,0.0075
-1.996,-0.162,0.0035
-1.9965,-0.165,0.002
-1.994,-0.1655,0.0
-1.998,-0.1665,-0.001
-1.9985,-0.166,-0.002
-1.993,-0.166,0.0
-1.9945,-0.1675,0.003
-1.998,-0.168,0.0005
-2.008,-0.1705,0.001
-2.012,-0.169,0.001
-2.01,-0.167,-0.0005
-2.01,-0.1655,0.0025
-2.0105,-0.164,0.0075
-2.01,-0.165,0.007
-2.009,-0.164,0.005
-2.012,-0.1635,0.0045
-2.0145,-0.1655,0.0055
-2.0145,-0.167,0.006
-2.006,-0.165,0.0035
-2.001,-0.165,0.0055
-2.002,-0.164,0.0055
-1.999,-0.164,0.003
-1.999,-0.1675,0.001
-1.9985,-0.166,-0.0015
-2.0025,-0.1675,-0.002
-2.0045,-0.167,0.001
-2.005,-0.1665,0.003
-2.0095,-0.1695,0.0055
-2.022,-0.1705,0.005
-2.026,-0.1735,0.002
-2.017,-0.1735,0.0015
-2.02,-0.1745,0.002
-2.021,-0.177,0.0045
-2.0195,-0.1785,0.0055
-2.021,-0.1795,0.0075
-2.0235,-0.1795,0.007
-2.022,-0.178,0.007
-2.021,-0.1785,0.0095
-2.0195,-0.1785,0.0095
-2.017,-0.1775,0.008
-2.023,-0.181,0.008
-2.02,-0.1795,0.007
-2.016,-0.177,0.0045
-2.0115,-0.179,0.003
-2.009,-0.18,0.002
-2.01,-0.178,0.0055
-2.0095,-0.179,0.0035
-2.007,-0.1815,0.0
-2.014,-0.181,0.0015
-2.0225,-0.1785,0.0025
-2.021,-0.176,0.005
-2.026,-0.179,0.0015
-2.026,-0.1805,-0.001
-2.0215,-0.177,0.004
-2.0235,-0.178,0.006
-2.0215,-0.18,0.003
-2.0195,-0.1815,0.0025
-2.0225,-0.1825,0.005
-2.025,-0.1825,0.0035
-2.0265,-0.183,0.005
-2.024,-0.183,0.006
-2.015,-0.182,0.006
-2.008,-0.1805,0.003
-2.0095,-0.18,0.002
-2.015,-0.1805,0.003
-2.0165,-0.1815,0.001
-2.0255,-0.1815,0.0045
-2.034,-0.1825,0.005
-2.041,-0.184,0.002
-2.0475,-0.1855,0.004
-2.0395,-0.186,0.0055
-2.0335,-0.186,0.0045
-2.031,-0.186,0.005
-2.029,-0.1865,0.0085
-2.0295,-0.187,0.009
-2.0265,-0.1875,0.0095
-2.027,-0.187,0.009
-2.025,-0.187,0.009
-2.019,-0.184,0.01
-2.0175,-0.1815,0.011
-2.021,-0.1845,0.011
-2.018,-0.184,0.01
-2.014,-0.184,0.0115
-2.012,-0.184,0.011
-2.01,-0.1835,0.01
-2.0115,-0.1835,0.0115
-2.011,-0.184,0.0115
-2.0095,-0.1835,0.0095
-2.017,-0.1845,0.0105
-2.0215,-0.186,0.013
-2.0145,-0.183,0.011
-2.0135,-0.1805,0.0125
-2.0115,-0.179,0.0135
-2.009,-0.178,0.012
-2.0095,-0.179,0.013
-2.0105,-0.179,0.0145
-2.013,-0.1795,0.014
-2.0105,-0.1795,0.014
-2.007,-0.179,0.0125
-2.0025,-0.179,0.0125
-2.003,-0.1775,0.0135
-2.0005,-0.177,0.01
-1.9995,-0.178,0.0115
-2.0025,-0.179,0.011
-2.004,-0.1795,0.0095
-2.0065,-0.182,0.0115
-2.0055,-0.183,0.012
-2.0025,-0.181,0.013
-2.0005,-0.1795,0.0115
-2.0045,-0.1795,0.013
-2.003,-0.1805,0.016
-2.0,-0.1775,0.0175
-2.0035,-0.1765,0.0205
-2.0055,-0.1775,0.02
-2.007,-0.1755,0.021
-2.01,-0.177,0.0185
-2.015,-0.177,0.018
-2.014,-0.1735,0.021
-2.007,-0.173,0.0185
-2.0075,-0.174,0.018
-2.0085,-0.174,0.019
-1.9985,-0.1735,0.018
-1.999,-0.173,0.016
-2.002,-0.174,0.0145
-2.0005,-0.175,0.0135
-2.004,-0.174,0.0135
-2.002,-0.1725,0.014
-2.0015,-0.172,0.0155
-2.0005,-0.1715,0.017
-1.997,-0.1715,0.0155
-1.995,-0.171,0.016
-1.993,-0.1725,0.0185
-1.987,-0.1735,0.0185
-1.988,-0.1725,0.02
-1.9955,-0.171,0.02
-2.002,-0.1715,0.0175
-2.005,-0.1725,0.0155
-2.0015,-0.1705,0.0175
-2.001,-0.17,0.0205
-1.9995,-0.1715,0.0205
-2.004,-0.172,0.023
-2.0065,-0.1715,0.023
-2.0075,-0.173,0.0235
-2.013,-0.172,0.0235
-2.015,-0.1705,0.0215
-2.0175,-0.1715,0.0235
-2.019,-0.17,0.026
-2.0165,-0.1675,0.024
-2.015,-0.165,0.0235
-2.017,-0.1635,0.0235
-2.0155,-0.1635,0.022
-2.0135,-0.1625,0.0255
-2.015,-0.1635,0.027
-2.016,-0.1645,0.027
-2.0165,-0.1645,0.025
-2.0155,-0.1645,0.022
-2.0125,-0.165,0.0225
-2.012,-0.1665,0.0225
-2.0095,-0.164,0.0235
-2.007,-0.1625,0.024
-2.008,-0.165,0.023
-2.007,-0.1665,0.022
-2.0085,-0.167,0.0225
-2.0105,-0.167,0.0225
-2.011,-0.1665,0.0235
-2.013,-0.1645,0.024
-2.0155,-0.165,0.024
-2.0125,-0.168,0.0235
-2.0175,-0.169,0.022
-2.026,-0.168,0.0215
-2.0205,-0.1665,0.022
-2.017,-0.167,0.025
-2.016,-0.167,0.0275
-2.017,-0.1665,0.0295
-2.015,-0.167,0.03
-2.013,-0.166,0.031
-2.013,-0.165,0.0315
-2.0135,-0.167,0.0295
-2.0115,-0.167,0.0295
-2.012,-0.1675,0.029
-2.016,-0.1675,0.0315
-2.0125,-0.1645,0.0315
-2.009,-0.1655,0.027
-2.0085,-0.1665,0.031
-2.0065,-0.165,0.031
-2.004,-0.165,0.03
-2.0065,-0.1655,0.0315
-2.0095,-0.168,0.028
-2.0125,-0.171,0.03
-2.011,-0.1695,0.0305
-2.008,-0.1695,0.0315
-2.0155,-0.1685,0.0315
-2.016,-0.1675,0.0305
-2.013,-0.1675,0.0335
-2.014,-0.1685,0.0335
-2.013,-0.1695,0.032
-2.0115,-0.166,0.033
-2.0135,-0.1635,0.033
-2.013,-0.162,0.032
-2.0085,-0.163,0.0325
-2.006,-0.1655,0.031
-2.002,-0.1615,0.0315
-2.0005,-0.1595,0.0305
-2.0035,-0.1595,0.0285
-2.005,-0.16,0.0305
-2.0075,-0.16,0.0325
-2.0095,-0.159,0.0335
-2.011,-0.161,0.032
-2.0135,-0.1615,0.0305
-2.0125,-0.161,0.0295
-2.0105,-0.16,0.03
-2.019,-0.1595,0.032
-2.0195,-0.1615,0.0355
-2.012,-0.163,0.034
-2.0125,-0.1635,0.0325
-2.011,-0.165,0.0335
-2.007,-0.1665,0.0285
-2.004,-0.165,0.027
-2.0005,-0.1625,0.028
-2.0005,-0.1625,0.0285
-2.006,-0.163,0.0305
-2.0075,-0.1655,0.03
-2.004,-0.164,0.029
-2.0025,-0.1625,0.028
-2.0055,-0.1645,0.0265
-1.9985,-0.1645,0.0285
-1.9935,-0.1655,0.03
-1.9985,-0.1655,0.03
-2.0045,-0.166,0.029
-2.0055,-0.1675,0.0285
-1.9995,-0.168,0.03
-2.0045,-0.168,0.033
-2.003,-0.168,0.036
-1.9975,-0.1675,0.035
-2.0005,-0.169,0.036
-1.996,-0.169,0.036
-1.9935,-0.169,0.033
-1.995,-0.171,0.0345
-1.9925,-0.1695,0.0345
-1.9895,-0.168,0.034
-1.9935,-0.1685,0.0335
-1.9935,-0.1685,0.031
-1.9925,-0.17,0.0295
-1.9955,-0.1715,0.0305
-1.996,-0.169,0.0315
-1.999,-0.1685,0.0295
-1.9975,-0.168,0.0305
-1.995,-0.1675,0.032
-1.995,-0.168,0.03
-1.9965,-0.1695,0.03
-1.9925,-0.1675,0.03
-1.994,-0.167,0.0305
-1.9975,-0.1695,0.035
-1.9875,-0.168,0.036
-1.9795,-0.1675,0.034
-1.9815,-0.168,0.034
-1.9825,-0.1675,0.0345
-1.979,-0.168,0.0355
-1.974,-0.166,0.036
-1.9665,-0.164,0.035
-1.967,-0.166,0.0355
-1.968,-0.1685,0.035
-1.9695,-0.1705,0.032
-1.974,-0.1725,0.0305
-1.977,-0.1715,0.0285
-1.9795,-0.172,0.03
-1.9775,-0.1745,0.029
-1.9755,-0.174,0.025
-1.9755,-0.1735,0.0275
-1.9735,-0.173,0.029
-1.9675,-0.1725,0.03
-1.972,-0.172,0.0305
-1.9815,-0.173,0.0335
-1.9795,-0.174,0.036
-1.981,-0.174,0.035
-1.9825,-0.1735,0.037
-1.9805,-0.1705,0.033
-1.9825,-0.1705,0.032
-1.9855,-0.17,0.033
-1.986,-0.168,0.0345
-1.985,-0.168,0.0345
-1.979,-0.1685,0.031
-1.972,-0.169,0.0325
-1.9665,-0.168,0.031
-1.965,-0.168,0.03
-1.9695,-0.1675,0.0315
-1.975,-0.167,0.0335
-1.973,-0.168,0.0345
-1.9695,-0.17,0.034
-1.9735,-0.17,0.035
-1.973,-0.167,0.035
-1.976,-0.1645,0.0365
-1.989,-0.164,0.0405
-1.989,-0.166,0.043
-1.981,-0.1665,0.04
-1.9755,-0.165,0.0365
-1.97,-0.164,0.0345
-1.9705,-0.163,0.0345
-1.9685,-0.162,0.0365
-1.9675,-0.1615,0.034
-1.973,-0.1615,0.035
-1.978,-0.161,0.034
-1.979,-0.161,0.0315
-1.9775,-0.1605,0.032
-1.9785,-0.1595,0.0305
-1.978,-0.1625,0.029
-1.9785,-0.1645,0.0315
-1.975,-0.162,0.0345
-1.9705,-0.163,0.033
-1.974,-0.1625,0.0345
-1.971,-0.1635,0.034
-1.9625,-0.1645,0.034
-1.9695,-0.1625,0.037
-1.9795,-0.1655,0.0365
-1.9755,-0.166,0.0365
-1.9715,-0.166,0.0365
-1.9685,-0.164,0.035
-1.9665,-0.164,0.0345
-1.9645,-0.166,0.035
-1.9605,-0.1635,0.0355
-1.9635,-0.165,0.0345
-1.9625,-0.1645,0.035
-1.9585,-0.164,0.033
-1.965,-0.167,0.031
-1.969,-0.168,0.0305
-1.968,-0.1655,0.0305
-1.968,-0.165,0.034
-1.974,-0.164,0.0315
-1.9795,-0.1625,0.034
-1.9765,-0.1655,0.036
-1.97,-0.1645,0.0365
-1.9675,-0.164,0.0395
-1.974,-0.1645,0.042
-1.979,-0.1665,0.044
-1.9775,-0.1685,0.0425
-1.976,-0.1685,0.043
-1.9725,-0.1665,0.0415
-1.973,-0.1635,0.0435
-1.972,-0.1655,0.0435
-1.9675,-0.165,0.0405
-1.971,-0.1655,0.0425
-1.9685,-0.165,0.0405
-1.9645,-0.165,0.039
-1.9665,-0.1635,0.038
-1.9675,-0.1645,0.0365
-1.9695,-0.163,0.0355
-1.9745,-0.1595,0.0365
-1.972,-0.161,0.0345
-1.9685,-0.16,0.034
-1.9735,-0.1625,0.0355
-1.97,-0.163,0.0365
-1.97,-0.161,0.0395
-1.9775,-0.1615,0.04
-1.9835,-0.1605,0.042
-1.9865,-0.1585,0.0435
-1.9855,-0.1575,0.041
-1.986,-0.158,0.038
-1.9835,-0.1605,0.037
-1.978,-0.162,0.0385
-1.976,-0.162,0.0375
-1.9795,-0.1635,0.0375
-1.978,-0.1625,0.0355
-1.974,-0.161,0.0335
-1.969,-0.1595,0.034
-1.965,-0.157,0.034
-1.9685,-0.155,0.0345
-1.9705,-0.1535,0.035
-1.9745,-0.155,0.0355
-1.976,-0.156,0.03
-1.9715,-0.1565,0.0265
-1.9705,-0.1585,0.029
-1.977,-0.1565,0.0325
-1.9835,-0.156,0.0345
-1.985,-0.157,0.0325
-1.982,-0.157,0.034
-1.9765,-0.1575,0.036
-1.9695,-0.156,0.0345
-1.9685,-0.1565,0.034
-1.9745,-0.1555,0.0345
-1.979,-0.1525,0.035
-1.984,-0.1535,0.036
-1.9875,-0.1555,0.035
-1.9865,-0.1545,0.034
-1.986,-0.151,0.0345
-1.9825,-0.15,0.035
-1.981,-0.1505,0.0375
-1.984,-0.151,0.041
-1.98,-0.1495,0.044
-1.979,-0.1485,0.0455
-1.981,-0.148,0.0455
-1.9765,-0.146,0.047
-1.975,-0.1445,0.046
-1.972,-0.1405,0.045
-1.9705,-0.138,0.047
-1.966,-0.138,0.045
-1.9595,-0.137,0.043
-1.963,-0.1345,0.042
-1.9595,-0.1345,0.0415
-1.954,-0.1335,0.0395
-1.9495,-0.132,0.0365
-1.951,-0.132,0.038
-1.951,-0.1275,0.0385
-1.948,-0.1255,0.0405
-1.951,-0.125,0.0425
-1.9485,-0.12,0.0415
-1.948,-0.1145,0.045
-1.946,-0.1125,0.0485
-1.9455,-0.1135,0.047
-1.9455,-0.1105,0.05
-1.9445,-0.1085,0.0515
-1.9385,-0.106,0.052
-1.933,-0.102,0.058
-1.931,-0.098,0.0585
-1.929,-0.094,0.063
-1.931,-0.0915,0.067
-1.9285,-0.088,0.071
-1.9245,-0.0865,0.0715
-1.9235,-0.0855,0.0665
-1.9235,-0.0815,0.068
-1.918,-0.081,0.0655
-1.9165,-0.08,0.063
-1.917,-0.076,0.061
-1.9175,-0.071,0.056
-1.9145,-0.066,0.0555
-1.906,-0.0615,0.0545
-1.8985,-0.0535,0.056
-1.8905,-0.0515,0.0565
-1.893,-0.0505,0.0585
-1.8925,-0.0445,0.0605
-1.889,-0.0425,0.0595
-1.8805,-0.0375,0.064
-1.8725,-0.0335,0.069
-1.873,-0.0355,0.0705
-1.872,-0.0385,0.07
-1.8765,-0.042,0.072
-1.8745,-0.043,0.073
-1.8725,-0.042,0.0715
-1.8765,-0.043,0.0665
-1.876,-0.046,0.06
-1.8775,-0.0495,0.061
-1.883,-0.0535,0.0635
-1.879,-0.056,0.065
-1.8745,-0.0595,0.0625
-1.879,-0.066,0.059
-1.881,-0.0725,0.062
-1.887,-0.0755,0.06
-1.8915,-0.077,0.0585
-1.8905,-0.0815,0.057
-1.8925,-0.0855,0.0575
-1.8955,-0.088,0.0635
-1.8925,-0.09,0.062
-1.894,-0.093,0.065
-1.8965,-0.0925,0.068
-1.8905,-0.089,0.066
-1.8905,-0.0925,0.067
-1.8935,-0.094,0.063
-1.8885,-0.0945,0.0555
-1.889,-0.098,0.0505
-1.8945,-0.099,0.0475
-1.895,-0.101,0.045
-1.898,-0.1015,0.0435
-1.898,-0.102,0.0435
-1.8915,-0.1025,0.0415
-1.89,-0.1005,0.0395
-1.886,-0.103,0.0345
-1.885,-0.106,0.0315
-1.889,-0.1075,0.029
-1.887,-0.1105,0.021
-1.884,-0.112,0.0195
-1.886,-0.1135,0.018
-1.8835,-0.1125,0.019
-1.881,-0.1095,0.0235
-1.885,-0.109,0.0235
-1.886,-0.1105,0.024
-1.8905,-0.111,0.026
-1.8915,-0.1115,0.0285
-1.8855,-0.11,0.0325
-1.8885,-0.1085,0.0385
-1.8975,-0.11,0.045
-1.9005,-0.111,0.051
-1.9095,-0.115,0.0545
-1.92,-0.1215,0.054
-1.9265,-0.131,0.047
-1.937,-0.1395,0.043
-1.94,-0.1395,0.04
-1.944,-0.142,0.034
-1.954,-0.145,0.031
-1.958,-0.1475,0.03
-1.9555,-0.152,0.0285
-1.957,-0.1555,0.024
-1.9585,-0.1595,0.023
-1.9555,-0.163,0.024
-1.966,-0.164,0.0245
-1.973,-0.167,0.023
-1.9795,-0.1725,0.023
-1.9865,-0.1755,0.024
-1.979,-0.1755,0.023
-1.979,-0.175,0.0205
-1.9725,-0.174,0.0185
-1.964,-0.172,0.021
-1.97,-0.172,0.0205
-1.974,-0.172,0.0195
-1.971,-0.1725,0.017
-1.9675,-0.173,0.012
-1.965,-0.171,0.0125
-1.9605,-0.1725,0.0155
-1.96,-0.1715,0.0145
-1.959,-0.1695,0.014
-1.9605,-0.1715,0.0145
-1.967,-0.1705,0.0145
-1.9655,-0.1705,0.0145
-1.9635,-0.1695,0.015
-1.9655,-0.167,0.0175
-1.9625,-0.1675,0.0175
-1.961,-0.169,0.0165
-1.962,-0.168,0.0185
-1.9665,-0.167,0.019
-1.968,-0.1665,0.018
-1.966,-0.169,0.016
-1.9655,-0.17,0.014
-1.968,-0.1705,0.015
-1.968,-0.171,0.013
-1.9645,-0.171,0.012
-1.9695,-0.1725,0.01
-1.972,-0.1735,0.01
-1.9745,-0.175,0.013
-1.9815,-0.178,0.0115
-1.979,-0.1815,0.01
-1.979,-0.1805,0.011
-1.983,-0.18,0.0095
-1.9785,-0.1795,0.0085
-1.9755,-0.1805,0.0105
-1.975,-0.1805,0.0115
-1.976,-0.178,0.0125
-1.98,-0.177,0.011
-1.9905,-0.1765,0.009
-1.994,-0.179,0.009
-1.99,-0.1775,0.0085
-1.987,-0.176,0.0105
-1.977,-0.176,0.0115
-1.9795,-0.175,0.0105
-1.983,-0.1765,0.0105
-1.981,-0.1775,0.0115
-1.9785,-0.1775,0.0115
-1.977,-0.18,0.0095
-1.9785,-0.1805,0.0075
-1.979,-0.18,0.01
-1.985,-0.183,0.011
-1.9855,-0.1785,0.011
-1.988,-0.177,0.0135
-1.9865,-0.178,0.012
-1.985,-0.177,0.01
-1.9915,-0.1785,0.0095
-1.9905,-0.178,0.0105
-1.9845,-0.1785,0.0125
-1.98,-0.1805,0.0135
-1.9815,-0.181,0.012
-1.9775,-0.179,0.0105
-1.9755,-0.177,0.0135
-1.9725,-0.1775,0.013
-1.977,-0.178,0.015
-1.9795,-0.178,0.014
-1.972,-0.1765,0.0115
-1.976,-0.178,0.014
-1.978,-0.1775,0.011
-1.972,-0.177,0.0105
-1.9685,-0.1795,0.0105
-1.9685,-0.1765,0.011
-1.9705,-0.175,0.011
-1.976,-0.176,0.0065
-1.9805,-0.178,0.004
-1.9865,-0.178,0.006
-1.9965,-0.176,0.008
-2.0025,-0.1765,0.01
-1.995,-0.177,0.0155
-1.9875,-0.176,0.016
-1.996,-0.176,0.0145
-2.0015,-0.179,0.0145
-2.006,-0.1815,0.014
-2.0075,-0.186,0.011
-2.0085,-0.194,0.0065
-2.015,-0.2025,0.0005
-2.016,-0.2185,-0.0095
-2.022,-0.239,-0.0205
-2.0265,-0.2535,-0.0305
-2.0265,-0.272,-0.043
-2.029,-0.292,-0.059
-2.031,-0.304,-0.0695
-2.0335,-0.31,-0.0755
-2.0325,-0.3105,-0.081
-2.03,-0.316,-0.0845
-2.028,-0.3155,-0.0855
-2.027,-0.306,-0.0865
-2.0155,-0.2895,-0.0905
-1.9955,-0.2585,-0.09
-1.9695,-0.22,-0.1
-1.9495,-0.1885,-0.113
-1.9325,-0.153,-0.11
-1.9095,-0.11,-0.1015
-1.888,-0.0675,-0.0855
-1.8585,-0.0045,-0.065
-1.832,0.0645,-0.05
-1.812,0.1195,-0.0415
-1.793,0.1755,-0.0255
-1.768,0.2395,0.0025
-1.742,0.3075,0.0415
-1.7005,0.396,0.0965
-1.655,0.4945,0.1375
-1.6355,0.561,0.1895
-1.6245,0.6175,0.259
-1.6005,0.7125,0.3215
-1.584,0.7945,0.4005
-1.5915,0.838,0.452
-1.592,0.8935,0.4755
-1.5815,0.9645,0.4965
-1.571,1.028,0.5185
-1.582,1.065,0.523
-1.6035,1.095,0.518
-1.623,1.1,0.526
-1.654,1.0405,0.5015
-1.6925,0.961,0.4665
-1.736,0.869,0.3985
-1.7735,0.7345,0.2915
-1.824,0.587,0.233
-1.893,0.406,0.21
-1.965,0.187,0.193
-2.0535,-0.068,0.185
-2.1325,-0.3045,0.165
-2.18,-0.472,0.14
-2.2045,-0.575,0.1175
-2.2015,-0.591,0.088
-2.1965,-0.597,0.0505
-2.2045,-0.614,0.018
-2.206,-0.611,-0.006
-2.203,-0.6,-0.033
-2.206,-0.5965,-0.0595
-2.215,-0.599,-0.0835
-2.2225,-0.5925,-0.092
-2.213,-0.566,-0.0815
-2.1935,-0.536,-0.0765
-2.1745,-0.506,-0.0735
-2.158,-0.4755,-0.0625
-2.14,-0.45,-0.054
-2.125,-0.421,-0.0475
-2.1045,-0.384,-0.036
-2.083,-0.3455,-0.028
-2.066,-0.3135,-0.023
-2.051,-0.287,-0.017
-2.0375,-0.266,-0.0135
-2.0255,-0.2465,-0.0135
-2.0175,-0.2265,-0.012
-2.0155,-0.213,-0.0095
-2.018,-0.2015,-0.0095
-2.013,-0.1915,-0.0015
-2.0075,-0.1855,0.009
-1.9975,-0.178,0.018
-1.987,-0.1755,0.024
-1.9885,-0.173,0.03
-1.988,-0.17,0.038
-1.9805,-0.1665,0.0405
-1.9815,-0.16,0.044
-1.982,-0.1585,0.045
-1.9725,-0.156,0.049
-1.968,-0.1545,0.05
-1.9685,-0.1545,0.048
-1.9685,-0.154,0.0505
-1.969,-0.155,0.0475
-1.9685,-0.1555,0.05
-1.9705,-0.158,0.0485
-1.9765,-0.1595,0.0455
-1.9785,-0.1575,0.0465
-1.976,-0.155,0.044
-1.978,-0.156,0.0465
-1.9775,-0.156,0.0485
-1.974,-0.1565,0.0495
-1.9705,-0.158,0.0495
-1.967,-0.155,0.0475
-1.973,-0.155,0.0475
-1.9805,-0.1565,0.0505
-1.977,-0.153,0.0495
-1.9775,-0.1505,0.047
-1.9765,-0.15,0.0495
-1.9715,-0.148,0.0485
-1.9715,-0.1495,0.0475
-1.969,-0.151,0.0455
-1.961,-0.149,0.0435
-1.956,-0.1505,0.045
-1.9575,-0.1525,0.046
-1.958,-0.152,0.0455
-1.9625,-0.1535,0.045
-1.9665,-0.15,0.047
-1.9725,-0.149,0.047
-1.983,-0.152,0.0465
-1.9855,-0.149,0.0475
-1.9805,-0.1485,0.047
-1.9815,-0.1475,0.0455
-1.9795,-0.147,0.044
-1.9755,-0.147,0.046
-1.9785,-0.1465,0.0505
-1.9735,-0.148,0.0495
-1.974,-0.1475,0.047
-1.971,-0.147,0.047
-1.9615,-0.146,0.046
-1.961,-0.1445,0.0445
-1.96,-0.148,0.0435
-1.956,-0.148,0.044
-1.958,-0.1465,0.0445
-1.9665,-0.1485,0.0455
-1.966,-0.1465,0.0445
-1.9655,-0.144,0.0465
-1.9625,-0.143,0.046
-1.958,-0.144,0.0445
-1.9585,-0.1425,0.046
-1.9585,-0.1415,0.046
-1.957,-0.1435,0.0475
-1.9475,-0.1425,0.047
-1.9425,-0.143,0.047
-1.94,-0.146,0.046
-1.94,-0.147,0.0485
-1.9395,-0.1435,0.0535
-1.945,-0.143,0.054
-1.9525,-0.144,0.054
-1.9495,-0.1395,0.0555
-1.9475,-0.135,0.0555
-1.949,-0.133,0.0525
-1.9535,-0.1335,0.051
-1.962,-0.134,0.051
-1.9685,-0.1335,0.051
-1.964,-0.134,0.054
-1.958,-0.135,0.0555
-1.9525,-0.134,0.055
-1.9515,-0.131,0.056
-1.9575,-0.129,0.0565
-1.96,-0.1305,0.0575
-1.959,-0.1305,0.0585
-1.955,-0.13,0.055
-1.952,-0.1295,0.053
-1.946,-0.1275,0.051
-1.9485,-0.1285,0.0495
-1.943,-0.1285,0.051
-1.935,-0.1285,0.051
-1.9375,-0.13,0.0485
-1.935,-0.1315,0.0455
-1.9395,-0.1355,0.044
-1.9355,-0.132,0.044
-1.9345,-0.1305,0.0445
-1.9375,-0.133,0.045
-1.9375,-0.1325,0.043
-1.9385,-0.13,0.042
-1.939,-0.1285,0.045
-1.9435,-0.1305,0.0435
-1.9415,-0.132,0.0445
-1.941,-0.1325,0.0455
-1.94,-0.131,0.047
-1.94,-0.13,0.0515
-1.9465,-0.132,0.0495
-1.95,-0.131,0.05
-1.9455,-0.1295,0.0495
-1.9415,-0.129,0.0505
-1.9395,-0.1285,0.0535
-1.938,-0.1275,0.054
-1.9355,-0.1255,0.053
-1.933,-0.127,0.0505
-1.9345,-0.128,0.0515
-1.9315,-0.1275,0.0485
-1.9305,-0.1255,0.0485
-1.9315,-0.126,0.051
-1.927,-0.1245,0.051
-1.924,-0.1205,0.0535
-1.9245,-0.1225,0.053
-1.923,-0.123,0.051
-1.923,-0.1235,0.0495
-1.931,-0.1245,0.0495
-1.9375,-0.1235,0.0505
-1.938,-0.124,0.0535
-1.938,-0.124,0.053
-1.9415,-0.125,0.051
-1.9385,-0.1235,0.052
-1.9375,-0.1235,0.052
-1.941,-0.125,0.055
-1.937,-0.123,0.0555
-1.935,-0.1225,0.053
-1.934,-0.123,0.0525
-1.934,-0.1235,0.051
-1.9345,-0.12,0.049
-1.931,-0.1185,0.048
-1.9315,-0.1175,0.0515
-1.9315,-0.116,0.0535
-1.929,-0.1165,0.054
-1.933,-0.118,0.0505
-1.9345,-0.1195,0.049
-1.9305,-0.116,0.051
-1.934,-0.112,0.0505
-1.934,-0.1115,0.055
-1.93,-0.112,0.054
-1.925,-0.111,0.0535
-1.918,-0.1095,0.0515
-1.9125,-0.108,0.0505
-1.9095,-0.1075,0.054
-1.912,-0.1055,0.055
-1.915,-0.104,0.0565
-1.9155,-0.1035,0.052
-1.9105,-0.102,0.0505
-1.9095,-0.1025,0.0495
-1.9145,-0.101,0.0505
-1.9175,-0.0995,0.051
-1.919,-0.1005,0.0495
-1.9145,-0.1,0.051
-1.9135,-0.1015,0.049
-1.9145,-0.1005,0.0505
-1.9155,-0.098,0.0535
-1.9145,-0.1,0.055
-1.9175,-0.0985,0.0575
-1.9185,-0.097,0.0605
-1.9155,-0.0955,0.059
-1.9155,-0.0965,0.0575
-1.9105,-0.095,0.057
-1.9105,-0.092,0.057
-1.909,-0.0945,0.058
-1.903,-0.0945,0.058
-1.9055,-0.0925,0.057
-1.9045,-0.091,0.055
-1.903,-0.09,0.0535
-1.8995,-0.0895,0.054
-1.897,-0.0885,0.055
-1.894,-0.0865,0.0545
-1.893,-0.0845,0.0565
-1.896,-0.0865,0.0555
-1.8945,-0.085,0.0535
-1.891,-0.0835,0.056
-1.89,-0.082,0.053
-1.893,-0.079,0.0525
-1.8935,-0.0775,0.054
-1.8935,-0.0765,0.055
-1.8945,-0.0755,0.058
-1.8905,-0.074,0.0605
-1.8915,-0.07,0.0595
-1.8935,-0.067,0.059
-1.89,-0.0665,0.0605
-1.89,-0.0655,0.061
-1.889,-0.0625,0.0625
-1.882,-0.0605,0.062
-1.8745,-0.061,0.0635
-1.872,-0.063,0.0625
-1.863,-0.065,0.063
-1.8615,-0.062,0.067
-1.8745,-0.0595,0.067
-1.883,-0.0585,0.068
-1.883,-0.0555,0.071
-1.886,-0.0525,0.0705
-1.883,-0.0505,0.0705
-1.8705,-0.0465,0.0725
-1.866,-0.043,0.073
-1.8645,-0.042,0.076
-1.858,-0.0395,0.078
-1.859,-0.038,0.0795
-1.8635,-0.036,0.0775
-1.8615,-0.0325,0.0765
-1.86,-0.0305,0.078
-1.857,-0.026,0.0795
-1.86,-0.0235,0.0845
-1.863,-0.022,0.084
-1.8485,-0.0185,0.0835
-1.8315,-0.0175,0.081
-1.828,-0.0165,0.081
-1.8295,-0.014,0.081
-1.833,-0.0135,0.08
-1.839,-0.0135,0.081
-1.8355,-0.0095,0.0805
-1.8415,-0.013,0.0795
-1.84,-0.01,0.081
-1.8305,-0.001,0.0845
-1.835,-0.001,0.085
-1.8275,0.0005,0.086
-1.821,0.0035,0.0865
-1.8205,0.006,0.0885
-1.8215,0.007,0.09
-1.8205,0.0095,0.087
-1.818,0.008,0.088
-1.8145,0.0085,0.0895
-1.813,0.0125,0.092
-1.816,0.0145,0.095
-1.8105,0.0175,0.0935
-1.8035,0.0185,0.093
-1.7965,0.021,0.097
-1.7945,0.0225,0.0965
-1.795,0.0245,0.0975
-1.797,0.0265,0.1025
-1.7925,0.0295,0.1025
-1.789,0.0315,0.1015
-1.797,0.0315,0.1015
-1.8005,0.034,0.103
-1.807,0.037,0.1035
-1.8065,0.04,0.107
-1.801,0.0395,0.1085
-1.801,0.0415,0.107
-1.801,0.0425,0.1075
-1.798,0.0425,0.106
-1.793,0.044,0.1085
-1.7895,0.047,0.108
-1.7925,0.049,0.11
-1.8,0.0495,0.115
-1.797,0.0525,0.113
-1.8005,0.0535,0.1125
-1.8065,0.0525,0.111
-1.802,0.052,0.1115
-1.8015,0.052,0.11
-1.801,0.0505,0.109
-1.802,0.05,0.1125
-1.806,0.0495,0.109
-1.8035,0.0455,0.109
-1.8015,0.043,0.1085
-1.809,0.0425,0.1085
-1.813,0.04,0.1135
-1.8165,0.0365,0.1125
-1.8215,0.032,0.1105
-1.824,0.029,0.106
-1.829,0.0225,0.1015
-1.834,0.0175,0.1025
-1.834,0.014,0.0985
-1.836,0.0075,0.0975
-1.845,0.0035,0.0975
-1.8435,0.0005,0.095
-1.8455,-0.0025,0.0915
-1.855,-0.008,0.088
-1.8585,-0.012,0.085
-1.8615,-0.015,0.084
-1.8665,-0.02,0.0845
-1.8705,-0.025,0.082
-1.879,-0.031,0.0795
-1.8815,-0.036,0.076
-1.8705,-0.0395,0.075
-1.87,-0.044,0.0745
-1.875,-0.048,0.073
-1.873,-0.053,0.0745
-1.8745,-0.0585,0.0715
-1.8815,-0.062,0.0685
-1.8885,-0.066,0.0675
-1.8965,-0.071,0.0675
-1.9015,-0.075,0.067
-1.904,-0.0785,0.064
-1.911,-0.083,0.064
-1.9115,-0.0865,0.0605
-1.9085,-0.09,0.0585
-1.908,-0.0915,0.057
-1.914,-0.095,0.054
-1.92,-0.0985,0.055
-1.922,-0.101,0.0525
-1.923,-0.1055,0.05
-1.9215,-0.109,0.049
-1.922,-0.113,0.045
-1.917,-0.117,0.043
-1.9195,-0.1205,0.043
-1.924,-0.122,0.043
-1.925,-0.126,0.0445
-1.929,-0.1295,0.044
-1.9315,-0.1295,0.0415
-1.9365,-0.13,0.0415
-1.9385,-0.1345,0.04
-1.9335,-0.137,0.0405
-1.935,-0.1345,0.0395
-1.95,-0.138,0.037
-1.9565,-0.141,0.0375
-1.962,-0.1415,0.036
-1.9655,-0.145,0.0315
-1.96,-0.145,0.029
-1.959,-0.144,0.028
-1.9585,-0.146,0.0265
-1.958,-0.145,0.0265
-1.9565,-0.1425,0.027
-1.9575,-0.146,0.027
-1.955,-0.1485,0.027
-1.956,-0.148,0.027
-1.961,-0.1485,0.0295
-1.9615,-0.1495,0.028
-1.958,-0.149,0.027
-1.9565,-0.15,0.0275
-1.9575,-0.15,0.025
-1.9505,-0.151,0.0275
-1.9465,-0.1535,0.0255
-1.947,-0.154,0.025
-1.9515,-0.154,0.0285
-1.953,-0.1555,0.0275
-1.9485,-0.1575,0.027
-1.947,-0.1565,0.025
-1.955,-0.158,0.0245
-1.962,-0.159,0.026
-1.9605,-0.1605,0.025
-1.958,-0.161,0.025
-1.957,-0.162,0.025
-1.963,-0.1645,0.025
-1.9645,-0.1655,0.025
-1.9635,-0.1675,0.026
-1.962,-0.1685,0.027
-1.956,-0.168,0.027
-1.9555,-0.167,0.0265
-1.958,-0.166,0.0255
-1.962,-0.1665,0.0245
-1.9595,-0.1655,0.0235
-1.954,-0.1635,0.0255
-1.953,-0.1635,0.027
-1.9565,-0.165,0.026
-1.9605,-0.1645,0.025
-1.96,-0.1635,0.0255
-1.9585,-0.1675,0.024
-1.958,-0.168,0.02
-1.9585,-0.1655,0.0215
-1.9625,-0.166,0.0205
-1.965,-0.1665,0.019
-1.966,-0.1665,0.019
-1.9705,-0.1675,0.0195
-1.9665,-0.167,0.023
-1.964,-0.1655,0.0245
-1.9685,-0.165,0.0245
-1.9655,-0.1655,0.024
-1.958,-0.1655,0.0235
-1.955,-0.164,0.0235
-1.957,-0.164,0.0235
-1.9585,-0.165,0.0225
-1.9585,-0.1655,0.024
-1.9595,-0.165,0.0245
-1.964,-0.1655,0.0235
-1.967,-0.1655,0.024
-1.9645,-0.166,0.0215
-1.9585,-0.168,0.0215
-1.9495,-0.1665,0.0215
-1.95,-0.1655,0.0225
-1.9605,-0.167,0.0255
-1.965,-0.165,0.024
-1.965,-0.164,0.0245
-1.9655,-0.1675,0.026
-1.962,-0.169,0.026
-1.962,-0.17,0.0265
-1.9625,-0.1685,0.0275
-1.963,-0.166,0.028
-1.9655,-0.166,0.031
-1.965,-0.1665,0.0335
-1.964,-0.168,0.0315
-1.9645,-0.168,0.033
-1.961,-0.1665,0.0335
-1.958,-0.1675,0.032
-1.957,-0.1675,0.0305
-1.961,-0.166,0.028
-1.9665,-0.165,0.0285
-1.963,-0.1635,0.0265
-1.9595,-0.163,0.024
-1.9555,-0.162,0.025
-1.9565,-0.1615,0.027
-1.9635,-0.1605,0.0275
-1.9675,-0.159,0.024
-1.968,-0.16,0.024
-1.965,-0.161,0.0255
-1.9665,-0.1635,0.027
-1.9685,-0.1635,0.0295
-1.968,-0.1625,0.0315
-1.9685,-0.1635,0.035
-1.9685,-0.1645,0.033
-1.967,-0.1665,0.03
-1.9685,-0.1685,0.0315
-1.9605,-0.168,0.0315
-1.956,-0.172,0.032
-1.961,-0.174,0.0295
-1.9625,-0.1725,0.029
-1.9695,-0.1755,0.029
-1.969,-0.1735,0.028
-1.969,-0.1725,0.0305
-1.9695,-0.1735,0.0295
-1.969,-0.172,0.028
-1.967,-0.172,0.0275
-1.96,-0.172,0.0265
-1.9615,-0.171,0.025
-1.9555,-0.169,0.028
-1.958,-0.1695,0.0275
-1.963,-0.1695,0.0265
-1.956,-0.1685,0.027
-1.957,-0.1675,0.026
-1.958,-0.1675,0.0305
-1.955,-0.1695,0.0285
-1.955,-0.17,0.03
-1.955,-0.17,0.032
-1.954,-0.1705,0.029
-1.955,-0.1725,0.0305
-1.9515,-0.1735,0.029
-1.957,-0.1745,0.025
-1.9605,-0.1745,0.0255
-1.9585,-0.173,0.027
-1.9615,-0.1765,0.025
-1.961,-0.178,0.025
-1.962,-0.176,0.0275
-1.963,-0.1765,0.029
-1.966,-0.178,0.0285
-1.9655,-0.178,0.029
-1.9675,-0.1765,0.03
-1.9665,-0.1735,0.029
-1.963,-0.173,0.028
-1.965,-0.1735,0.03
-1.966,-0.1725,0.0355
-1.9685,-0.173,0.035
-1.9665,-0.1715,0.035
-1.9645,-0.1685,0.0365
-1.962,-0.1665,0.0335
-1.965,-0.1635,0.0345
-1.965,-0.163,0.0355
-1.964,-0.166,0.0325
-1.9645,-0.1645,0.0325
-1.9575,-0.163,0.0315
-1.9545,-0.163,0.0345
-1.9515,-0.1595,0.0395
-1.9495,-0.162,0.0375
-1.9535,-0.1645,0.037
-1.9555,-0.1635,0.0375
-1.9535,-0.1645,0.0375
-1.954,-0.167,0.0395
-1.9575,-0.1675,0.0385
-1.961,-0.166,0.0385
-1.9675,-0.167,0.0405
-1.9745,-0.164,0.0415
-1.977,-0.1635,0.0415
-1.972,-0.166,0.0425
-1.9625,-0.167,0.0425
-1.9585,-0.165,0.043
-1.965,-0.164,0.045
-1.9635,-0.166,0.039
-1.96,-0.164,0.0395
-1.965,-0.163,0.0415
-1.9625,-0.1625,0.0385
-1.958,-0.1635,0.039
-1.955,-0.1655,0.036
-1.9555,-0.1605,0.0365
-1.9595,-0.1585,0.0365
-1.961,-0.1585,0.0355
-1.958,-0.156,0.0365
-1.9645,-0.156,0.0395
-1.971,-0.158,0.0415
-1.9655,-0.1605,0.041
-1.9655,-0.1615,0.0415
-1.9635,-0.1625,0.038
-1.9625,-0.1645,0.0355
-1.9615,-0.167,0.038
-1.965,-0.166,0.0385
-1.966,-0.1665,0.0385
-1.966,-0.167,0.0395
-1.9725,-0.168,0.0385
-1.9695,-0.1685,0.037
-1.9725,-0.1655,0.036
-1.9705,-0.164,0.032
-1.9645,-0.163,0.0285
-1.967,-0.1625,0.032
-1.968,-0.162,0.032
-1.968,-0.1605,0.029
-1.9735,-0.161,0.0315
-1.9735,-0.161,0.0345
-1.965,-0.161,0.037
-1.9645,-0.1595,0.0395
-1.971,-0.161,0.039
-1.9755,-0.1635,0.041
-1.9715,-0.161,0.041
-1.971,-0.162,0.0375
-1.97,-0.1605,0.039
-1.966,-0.1575,0.0415
-1.967,-0.158,0.041
-1.9725,-0.1585,0.043
-1.9765,-0.161,0.0415
-1.969,-0.159,0.036
-1.97,-0.157,0.038
-1.975,-0.1575,0.0365
-1.969,-0.157,0.0335
-1.9675,-0.1575,0.0345
-1.9715,-0.155,0.0335
-1.976,-0.154,0.031
-1.975,-0.153,0.0315
-1.9715,-0.153,0.0325
-1.9735,-0.156,0.0325
-1.972,-0.155,0.035
-1.9665,-0.155,0.0355
-1.968,-0.1565,0.035
-1.969,-0.159,0.0325
-1.9685,-0.1575,0.03
-1.9675,-0.1575,0.0335
-1.967,-0.159,0.0345
-1.967,-0.16,0.034
-1.97,-0.1625,0.0345
-1.978,-0.162,0.0325
-1.979,-0.162,0.0305
-1.985,-0.1625,0.0295
-1.9905,-0.163,0.033
-1.986,-0.1635,0.034
-1.9825,-0.1635,0.0305
-1.9745,-0.1635,0.029
-1.9735,-0.1655,0.025
-1.981,-0.1655,0.023
-1.9805,-0.165,0.023
-1.979,-0.166,0.0215
-1.981,-0.1645,0.0235
-1.9795,-0.164,0.025
-1.977,-0.1645,0.025
-1.9755,-0.161,0.03
-1.9745,-0.1625,0.0305
-1.975,-0.1645,0.0325
-1.9755,-0.1605,0.0355
-1.975,-0.1605,0.0345
-1.978,-0.159,0.037
-1.977,-0.1575,0.036
-1.9745,-0.159,0.033
-1.9785,-0.1595,0.032
-1.9775,-0.159,0.0325
-1.9745,-0.1595,0.035
-1.9775,-0.162,0.0335
-1.9795,-0.164,0.032
-1.979,-0.165,0.032
-1.9755,-0.1635,0.028
-1.973,-0.163,0.0295
-1.9785,-0.1645,0.034
-1.9765,-0.1645,0.0315
-1.9735,-0.1645,0.032
-1.975,-0.166,0.035
-1.973,-0.167,0.0295
-1.9735,-0.162,0.026
-1.9765,-0.16,0.027
-1.9725,-0.161,0.0285
-1.965,-0.159,0.029
-1.967,-0.1605,0.028
-1.9685,-0.1615,0.0255
-1.9725,-0.162,0.025
-1.9765,-0.163,0.024
-1.974,-0.161,0.0235
-1.9735,-0.161,0.027
-1.971,-0.1625,0.028
-1.9735,-0.163,0.0285
-1.973,-0.163,0.0285
-1.9715,-0.1635,0.028
-1.974,-0.164,0.0295
-1.9765,-0.1635,0.0285
-1.977,-0.162,0.027
-1.9785,-0.162,0.028
-1.9905,-0.1655,0.029
-1.99,-0.164,0.031
-1.9805,-0.163,0.032
-1.9815,-0.166,0.03
-1.9825,-0.1665,0.028
-1.9855,-0.166,0.032
-1.993,-0.166,0.0335
-1.994,-0.1665,0.0315
-1.997,-0.168,0.0325
-1.998,-0.1675,0.032
-1.995,-0.166,0.0315
-1.995,-0.1665,0.033
-1.9875,-0.1655,0.0315
-1.9865,-0.168,0.031
-1.99,-0.1695,0.031
-1.9885,-0.1675,0.029
-1.986,-0.168,0.0305
-1.981,-0.166,0.0315
-1.9845,-0.164,0.028
-1.986,-0.1615,0.0305
-1.9855,-0.159,0.033
-1.992,-0.16,0.0275
-1.989,-0.162,0.026
-1.9895,-0.163,0.0265
-1.9925,-0.1635,0.0255
-1.9895,-0.164,0.0265
-1.9915,-0.162,0.0295
-1.989,-0.1625,0.026
-1.992,-0.1655,0.024
-1.985,-0.1605,0.0285
-1.9775,-0.1595,0.025
-1.986,-0.163,0.024
-1.983,-0.1615,0.0255
-1.979,-0.1615,0.026
-1.979,-0.1615,0.0245
-1.978,-0.161,0.024
-1.9695,-0.16,0.0235
-1.9695,-0.159,0.024
-1.98,-0.161,0.0275
-1.9805,-0.161,0.0265
-1.9775,-0.1595,0.0265
-1.9745,-0.1595,0.0275
-1.975,-0.159,0.03
-1.9745,-0.1585,0.0295
-1.9725,-0.157,0.0335
-1.9695,-0.1575,0.038
-1.967,-0.1575,0.035
-1.969,-0.1585,0.0325
-1.972,-0.1615,0.034
-1.97,-0.159,0.032
-1.971,-0.158,0.0315
-1.9775,-0.1595,0.034
-1.98,-0.162,0.0305
-1.9835,-0.164,0.028
-1.9855,-0.1635,0.0275
-1.9855,-0.1615,0.029
-1.9825,-0.16,0.028
-1.9855,-0.163,0.03
-1.986,-0.1605,0.035
-1.981,-0.157,0.0305
-1.9815,-0.1595,0.0315
-1.979,-0.158,0.0345
-1.978,-0.156,0.0305
-1.974,-0.1545,0.03
-1.966,-0.1565,0.028
-1.964,-0.1565,0.027
-1.973,-0.1585,0.0285
-1.9795,-0.16,0.0295
-1.978,-0.159,0.0285
-1.9825,-0.163,0.0235
-1.981,-0.161,0.025
-1.9815,-0.1585,0.0275
-1.989,-0.159,0.029
-1.9815,-0.1565,0.026
-1.9795,-0.1555,0.0215
-1.9785,-0.155,0.022
-1.9705,-0.1555,0.0225
-1.97,-0.1545,0.0225
-1.9685,-0.155,0.02
-1.9645,-0.1555,0.021
-1.966,-0.154,0.0215
-1.971,-0.155,0.0195
-1.973,-0.1535,0.019
-1.9795,-0.1535,0.019
-1.988,-0.1575,0.021
-1.9935,-0.1585,0.0225
-2.003,-0.1615,0.019
-2.002,-0.1645,0.0175
-1.996,-0.164,0.021
-1.991,-0.166,0.018
-1.9825,-0.1655,0.0155
-1.984,-0.165,0.0185
-1.989,-0.166,0.0215
-1.985,-0.164,0.0245
-1.9795,-0.1625,0.021
-1.977,-0.163,0.021
-1.973,-0.1625,0.0205
-1.972,-0.1585,0.0215
-1.9745,-0.1555,0.0245
-1.9725,-0.1545,0.0245
-1.972,-0.1525,0.03
-1.972,-0.1525,0.028
-1.971,-0.1515,0.0285
-1.968,-0.1495,0.036
-1.961,-0.1475,0.0355
-1.9615,-0.1465,0.0325
-1.962,-0.1455,0.029
-1.9575,-0.141,0.0315
-1.9565,-0.1395,0.032
-1.9585,-0.1395,0.026
-1.951,-0.1375,0.0255
-1.949,-0.138,0.027
-1.957,-0.139,0.0255
-1.955,-0.1355,0.024
-1.9515,-0.13,0.0195
-1.9575,-0.1275,0.017
-1.956,-0.124,0.015
-1.9495,-0.1215,0.0145
-1.945,-0.1185,0.0205
-1.9415,-0.116,0.0265
-1.9375,-0.112,0.031
-1.9305,-0.106,0.031
-1.9275,-0.104,0.033
-1.925,-0.105,0.037
-1.922,-0.1065,0.039
-1.914,-0.099,0.0445
-1.9105,-0.094,0.0505
-1.909,-0.093,0.048
-1.9055,-0.0875,0.044
-1.909,-0.0865,0.044
-1.908,-0.082,0.046
-1.9085,-0.079,0.0425
-1.9135,-0.0805,0.0425
-1.912,-0.076,0.048
-1.9075,-0.0775,0.0425
-1.9045,-0.0745,0.036
-1.896,-0.065,0.0305
-1.894,-0.062,0.0295
-1.8945,-0.0545,0.0385
-1.8915,-0.049,0.0375
-1.885,-0.0455,0.0375
-1.8785,-0.043,0.0375
-1.879,-0.043,0.037
-1.874,-0.039,0.041
-1.866,-0.033,0.0455
-1.862,-0.0295,0.051
-1.861,-0.03,0.055
-1.862,-0.0305,0.056
-1.8595,-0.032,0.056
-1.859,-0.0365,0.054
-1.859,-0.041,0.051
-1.8525,-0.0415,0.048
-1.8565,-0.045,0.04
-1.869,-0.047,0.0425
-1.8715,-0.0495,0.048
-1.873,-0.055,0.0485
-1.87,-0.0555,0.0475
-1.8695,-0.0605,0.0445
-1.874,-0.0675,0.0465
-1.868,-0.0695,0.047
-1.8665,-0.071,0.0495
-1.872,-0.072,0.0485
-1.8775,-0.0735,0.0425
-1.884,-0.0805,0.0425
-1.8895,-0.0845,0.0435
-1.8875,-0.083,0.0485
-1.881,-0.0835,0.0515
-1.8835,-0.0855,0.0495
-1.8805,-0.083,0.046
-1.8745,-0.0785,0.04
-1.878,-0.0805,0.037
-1.8755,-0.085,0.032
-1.879,-0.088,0.029
-1.887,-0.087,0.026
-1.885,-0.088,0.0255
-1.883,-0.093,0.0265
-1.8745,-0.095,0.023
-1.8755,-0.097,0.0245
-1.879,-0.0955,0.0235
-1.881,-0.1025,0.022
-1.8905,-0.109,0.0215
-1.89,-0.1085,0.0175
-1.89,-0.114,0.009
-1.884,-0.1125,0.0065
-1.8755,-0.1055,0.0135
-1.8775,-0.101,0.017
-1.8825,-0.106,0.015
-1.8855,-0.113,0.0085
-1.8795,-0.11,0.009
-1.8755,-0.108,0.0105
-1.877,-0.1085,0.0125
-1.878,-0.1095,0.018
-1.8745,-0.1095,0.026
-1.881,-0.11,0.0325
-1.891,-0.1145,0.032
-1.9035,-0.1205,0.0355
-1.921,-0.1355,0.025
-1.9175,-0.136,0.025
-1.925,-0.135,0.024
-1.937,-0.142,0.0115
-1.931,-0.1435,0.0085
-1.936,-0.149,0.001
-1.9375,-0.1505,0.0045
-1.9335,-0.154,0.0035
-1.9405,-0.159,-0.001
-1.936,-0.162,-0.002
-1.9375,-0.1685,-0.002
-1.9435,-0.172,-0.0035
-1.9455,-0.173,-0.0075
-1.9535,-0.1725,-0.0045
-1.952,-0.174,-0.007
-1.959,-0.1765,-0.0095
-1.961,-0.175,-0.008
-1.9595,-0.1725,-0.0055
-1.961,-0.169,-0.0005
-1.9605,-0.1725,-0.002
-1.96,-0.174,-0.0055
-1.954,-0.171,-0.008
-1.9565,-0.1705,-0.0085
-1.9605,-0.1695,-0.0045
-1.9635,-0.1695,-0.0045
-1.9675,-0.169,-0.006
-1.963,-0.1655,-0.0095
-1.963,-0.163,-0.01
-1.9685,-0.165,-0.0065
-1.9665,-0.164,-0.0015
-1.965,-0.1645,-0.0005
-1.963,-0.1665,-0.0045
-1.961,-0.1695,-0.0055
-1.9645,-0.17,-0.004
-1.968,-0.1715,-0.001
-1.968,-0.1755,-0.0035
-1.9645,-0.1755,-0.003
-1.967,-0.1765,-0.002
-1.9745,-0.18,-0.0035
-1.9755,-0.18,-0.0015
-1.9695,-0.1785,-0.0005
-1.9705,-0.1805,-0.0025
-1.9755,-0.1805,-0.0025
-1.9795,-0.18,0.0015
-1.981,-0.182,0.0
-1.9725,-0.182,-0.0005
-1.974,-0.1805,0.0035
-1.9795,-0.1775,0.003
-1.979,-0.1775,0.004
-1.977,-0.1785,0.0035
-1.978,-0.178,0.004
-1.9805,-0.1785,0.002
-1.9805,-0.1805,-0.002
-1.9825,-0.184,-0.0025
-1.9805,-0.182,-0.0065
-1.98,-0.1795,-0.0065
-1.9785,-0.1785,-0.0065
-1.977,-0.176,-0.0085
-1.983,-0.1785,-0.0065
-1.987,-0.1785,-0.0055
-1.9815,-0.175,-0.0025
-1.9775,-0.174,-0.0025
-1.978,-0.172,-0.0035
-1.979,-0.172,-0.0015
-1.9825,-0.173,-0.0015
-1.9875,-0.174,-0.0025
-1.987,-0.1735,-0.0055
-1.9855,-0.1705,0.0
-1.987,-0.1705,0.0045
-1.9785,-0.1695,-0.0015
-1.976,-0.1715,-0.002
-1.9805,-0.175,-0.0025
-1.979,-0.1785,-0.0035
-1.9755,-0.1805,-0.0055
-1.975,-0.1785,-0.0095
-1.977,-0.1765,-0.006
-1.9805,-0.1775,-0.0065
-1.985,-0.1795,-0.011
-1.9855,-0.1765,-0.008
-1.987,-0.174,-0.0055
-1.982,-0.1755,-0.0055
-1.9745,-0.175,-0.004
-1.975,-0.1745,-0.003
-1.9785,-0.1785,-0.001
-1.979,-0.18,0.002
-1.9785,-0.177,0.0005
-1.9795,-0.177,0.0015
-1.982,-0.177,0.005
-1.986,-0.1785,0.0035
-1.985,-0.1795,0.003
-1.99,-0.1775,0.0105
-1.9885,-0.1745,0.012
-1.98,-0.1745,0.0055
-1.98,-0.173,0.0015
-1.978,-0.17,0.0005
-1.976,-0.174,0.0005
-1.976,-0.1755,0.0
-1.976,-0.1765,-0.0005
-1.9815,-0.182,-0.0045
-2.0005,-0.194,-0.0115
-2.005,-0.2035,-0.012
-2.007,-0.213,-0.018
-2.017,-0.2325,-0.028
-2.021,-0.252,-0.038
-2.032,-0.272,-0.0515
-2.037,-0.292,-0.065
-2.041,-0.305,-0.0705
-2.041,-0.3105,-0.077
-2.033,-0.3115,-0.087
-2.0265,-0.3135,-0.089
-2.024,-0.311,-0.0905
-2.0125,-0.3015,-0.0945
-1.995,-0.287,-0.103
-1.982,-0.256,-0.11
-1.956,-0.2125,-0.1215
-1.937,-0.184,-0.1325
-1.919,-0.148,-0.1305
-1.9035,-0.106,-0.1205
-1.893,-0.066,-0.1015
-1.869,-0.0015,-0.0815
-1.836,0.0615,-0.0695
-1.802,0.124,-0.0545
-1.7785,0.18,-0.0345
-1.75,0.2385,-0.0075
-1.719,0.3155,0.0395
-1.6785,0.4075,0.092
-1.64,0.5025,0.1355
-1.627,0.564,0.1965
-1.6135,0.632,0.2675
-1.588,0.731,0.3375
-1.5865,0.798,0.409
-1.5885,0.8455,0.4455
-1.5685,0.9095,0.4675
-1.556,0.98,0.4955
-1.556,1.0355,0.5245
-1.565,1.0675,0.5275
-1.583,1.09,0.521
-1.615,1.0735,0.524
-1.658,0.9995,0.4925
-1.7085,0.922,0.46
-1.748,0.8195,0.3885
-1.785,0.678,0.294
-1.852,0.514,0.2525
-1.9235,0.3155,0.2275
-1.9945,0.0915,0.2175
-2.0825,-0.1715,0.2035
-2.152,-0.384,0.176
-2.192,-0.535,0.1535
-2.209,-0.6105,0.133
-2.2015,-0.6105,0.1045
-2.1995,-0.6235,0.062
-2.204,-0.635,0.025
-2.2135,-0.636,-0.0085
-2.223,-0.627,-0.0375
-2.221,-0.619,-0.062
-2.225,-0.6235,-0.0835
-2.223,-0.615,-0.0895
-2.214,-0.5885,-0.088
-2.203,-0.56,-0.0875
-2.1955,-0.527,-0.08
-2.185,-0.492,-0.067
-2.1665,-0.465,-0.0605
-2.156,-0.4405,-0.049
-2.1335,-0.4025,-0.0335
-2.113,-0.3605,-0.0315
-2.0955,-0.328,-0.0235
-2.068,-0.297,-0.022
-2.049,-0.2735,-0.0265
-2.0395,-0.256,-0.0215
-2.022,-0.2325,-0.02
-2.011,-0.216,-0.0185
-2.0085,-0.207,-0.0145
-1.998,-0.197,-0.0095
-1.9925,-0.1905,-0.003
-1.99,-0.185,0.004
-1.9865,-0.1775,0.015
-1.982,-0.173,0.0255
-1.979,-0.173,0.0265
-1.9785,-0.1675,0.0335
-1.9835,-0.1655,0.032
-1.986,-0.166,0.032
-1.982,-0.165,0.039
-1.9825,-0.169,0.0335
-1.9815,-0.167,0.0375
-1.9855,-0.164,0.0415
-1.991,-0.1665,0.0365
-1.993,-0.1685,0.038
-1.99,-0.1695,0.0385
-1.983,-0.1665,0.0345
-1.9755,-0.1615,0.033
-1.97,-0.1595,0.0335
-1.97,-0.158,0.036
-1.9685,-0.1585,0.034
-1.9685,-0.158,0.033
-1.967,-0.1535,0.035
-1.9655,-0.152,0.0325
-1.97,-0.154,0.034
-1.97,-0.153,0.0375
-1.971,-0.151,0.036
-1.977,-0.1505,0.0365
-1.9805,-0.149,0.038
-1.9815,-0.152,0.0395
-1.984,-0.1555,0.041
-1.9795,-0.153,0.0415
-1.972,-0.1505,0.045
-1.967,-0.1525,0.0405
-1.959,-0.154,0.038
-1.9535,-0.152,0.0415
-1.949,-0.149,0.041
-1.943,-0.148,0.0435
-1.9465,-0.1495,0.046
-1.9545,-0.15,0.0435
-1.9535,-0.1505,0.0395
-1.954,-0.1505,0.04
-1.958,-0.148,0.044
-1.957,-0.1495,0.043
-1.955,-0.154,0.04
-1.957,-0.1555,0.038
-1.957,-0.1555,0.037
-1.957,-0.153,0.039
-1.968,-0.157,0.0365
-1.967,-0.1555,0.0385
-1.9535,-0.145,0.0475
-1.9545,-0.145,0.045
-1.9595,-0.147,0.0445
-1.956,-0.1465,0.048
-1.95,-0.144,0.043
-1.9475,-0.1445,0.041
-1.946,-0.1415,0.0455
-1.948,-0.1395,0.0445
-1.9535,-0.141,0.045
-1.9605,-0.139,0.047
-1.963,-0.1415,0.042
-1.952,-0.1375,0.0435
-1.9475,-0.1325,0.0465
-1.949,-0.135,0.0435
-1.949,-0.137,0.0455
-1.949,-0.1385,0.0435
-1.9505,-0.14,0.0455
-1.9485,-0.1415,0.047
-1.9435,-0.142,0.042
-1.943,-0.1405,0.043
-1.9465,-0.139,0.046
-1.949,-0.1385,0.049
-1.9475,-0.1355,0.046
-1.9495,-0.1345,0.043
-1.947,-0.137,0.045
-1.9415,-0.1355,0.0465
-1.9405,-0.133,0.051
-1.936,-0.133,0.05
-1.9395,-0.1325,0.0495
-1.9455,-0.1335,0.049
-1.9435,-0.139,0.043
-1.9405,-0.135,0.0435
-1.9375,-0.13,0.046
-1.935,-0.132,0.046
-1.934,-0.1295,0.046
-1.936,-0.1315,0.046
-1.937,-0.1325,0.046
-1.9335,-0.131,0.0485
-1.9325,-0.1335,0.05
-1.938,-0.135,0.0515
-1.9335,-0.1355,0.054
-1.931,-0.134,0.053
-1.9345,-0.135,0.0545
-1.9365,-0.1365,0.0585
-1.938,-0.14,0.0565
-1.9365,-0.14,0.0515
-1.943,-0.1405,0.054
-1.9375,-0.137,0.057
-1.9405,-0.1345,0.0565
-1.95,-0.135,0.0565
-1.9415,-0.1325,0.0525
-1.9385,-0.1315,0.051
-1.9365,-0.127,0.0505
-1.94,-0.1275,0.045
-1.9335,-0.1265,0.048
-1.922,-0.125,0.052
-1.9245,-0.126,0.05
-1.928,-0.124,0.0475
-1.9325,-0.127,0.043
-1.931,-0.126,0.043
-1.925,-0.1225,0.05
-1.924,-0.1235,0.052
-1.937,-0.123,0.0495
-1.9445,-0.12,0.05
-1.9445,-0.1215,0.0505
-1.9445,-0.1255,0.0485
-1.9445,-0.1275,0.047
-1.9435,-0.127,0.049
-1.942,-0.1255,0.051
-1.9385,-0.125,0.0515
-1.9335,-0.127,0.05
-1.9325,-0.124,0.051
-1.9335,-0.124,0.0495
-1.937,-0.1275,0.05
-1.9375,-0.1285,0.0545
-1.9435,-0.1325,0.0495
-1.95,-0.131,0.0505
-1.9465,-0.1285,0.0525
-1.9435,-0.1295,0.047
-1.948,-0.1305,0.0525
-1.954,-0.1285,0.057
-1.9485,-0.1265,0.0605
-1.945,-0.1265,0.062
-1.945,-0.123,0.059
-1.941,-0.116,0.062
-1.9345,-0.11,0.0565
-1.93,-0.1105,0.054
-1.933,-0.11,0.0575
-1.932,-0.107,0.057
-1.929,-0.1055,0.056
-1.9245,-0.1065,0.0525
-1.9205,-0.1045,0.052
-1.919,-0.0995,0.051
-1.918,-0.1005,0.05
-1.917,-0.102,0.048
-1.9175,-0.105,0.049
-1.92,-0.108,0.053
-1.9205,-0.1095,0.0535
-1.92,-0.109,0.052
-1.9155,-0.106,0.054
-1.92,-0.1075,0.058
-1.917,-0.107,0.0575
-1.913,-0.106,0.0595
-1.916,-0.105,0.058
-1.918,-0.1025,0.0555
-1.9185,-0.103,0.0565
-1.9185,-0.106,0.0575
-1.9195,-0.1095,0.0565
-1.9185,-0.1085,0.056
-1.9215,-0.1055,0.0585
-1.9155,-0.104,0.0585
-1.9125,-0.103,0.0545
-1.913,-0.104,0.0515
-1.9075,-0.1,0.054
-1.9065,-0.097,0.0565
-1.908,-0.0995,0.0565
-1.9055,-0.094,0.055
-1.9005,-0.0885,0.056
-1.9,-0.0885,0.055
-1.9045,-0.093,0.053
-1.906,-0.0905,0.0585
-1.902,-0.0875,0.0585
-1.8885,-0.09,0.0595
-1.8775,-0.086,0.064
-1.876,-0.082,0.0655
-1.878,-0.0805,0.065
-1.888,-0.084,0.0635
-1.8865,-0.0795,0.07
-1.883,-0.0755,0.0715
-1.8905,-0.0775,0.064
-1.8855,-0.0775,0.0645
-1.884,-0.076,0.067
-1.8855,-0.0745,0.0625
-1.8855,-0.07,0.068
-1.8835,-0.064,0.072
-1.877,-0.0645,0.066
-1.8795,-0.065,0.0715
-1.882,-0.0625,0.071
-1.885,-0.058,0.0695
-1.8885,-0.0555,0.0715
-1.889,-0.053,0.0745
-1.887,-0.053,0.0795
-1.8805,-0.052,0.0765
-1.871,-0.0445,0.075
-1.866,-0.044,0.072
-1.8605,-0.0405,0.072
-1.8555,-0.0375,0.0795
-1.857,-0.039,0.081
-1.854,-0.036,0.0785
-1.8515,-0.0315,0.078
-1.8495,-0.0285,0.0775
-1.8455,-0.0285,0.0755
-1.843,-0.024,0.077
-1.842,-0.0235,0.075
-1.84,-0.025,0.073
-1.838,-0.0245,0.077
-1.8405,-0.0245,0.0775
-1.842,-0.02,0.0785
-1.839,-0.016,0.081
-1.829,-0.0135,0.0845
-1.8285,-0.01,0.0895
-1.8405,-0.0115,0.091
-1.8365,-0.0115,0.093
-1.8245,-0.007,0.0945
-1.818,-0.0025,0.0935
-1.821,-0.0005,0.093
-1.825,-0.0025,0.0915
-1.8175,0.0055,0.0965
-1.815,0.008,0.1015
-1.8175,0.007,0.099
-1.817,0.01,0.096
-1.812,0.0115,0.0935
-1.81,0.015,0.093
-1.8085,0.017,0.0975
-1.8045,0.02,0.097
-1.8095,0.0195,0.0975
-1.809,0.021,0.0995
-1.8005,0.0265,0.1005
-1.798,0.027,0.1045
-1.792,0.0265,0.107
-1.789,0.027,0.1095
-1.795,0.0295,0.107
-1.799,0.033,0.11
-1.8015,0.0325,0.115
-1.7945,0.0345,0.116
-1.78,0.039,0.116
-1.778,0.039,0.1185
-1.776,0.042,0.1215
-1.777,0.0455,0.117
-1.78,0.0445,0.1145
-1.7765,0.045,0.1155
-1.774,0.0505,0.112
-1.7695,0.0545,0.1095
-1.7645,0.0575,0.112
-1.7605,0.06,0.1165
-1.7665,0.059,0.1175
-1.7655,0.0595,0.116
-1.7635,0.0625,0.117
-1.7665,0.063,0.112
-1.7655,0.0625,0.1125
-1.769,0.063,0.115
-1.7755,0.063,0.1165
-1.7835,0.0565,0.1185
-1.777,0.053,0.1135
-1.774,0.056,0.115
-1.7775,0.054,0.1155
-1.7725,0.051,0.111
-1.7765,0.052,0.115
-1.7845,0.0505,0.115
-1.7835,0.048,0.1125
-1.784,0.0485,0.117
-1.789,0.0435,0.118
-1.792,0.037,0.1155
-1.798,0.0355,0.11
-1.7965,0.034,0.108
-1.795,0.032,0.1075
-1.807,0.0275,0.103
-1.8275,0.022,0.104
-1.8425,0.016,0.1045
-1.8475,0.0085,0.103
-1.8525,0.0045,0.1015
-1.8495,0.0005,0.0985
-1.8465,-0.0055,0.1005
-1.8475,-0.01,0.101
-1.85,-0.0115,0.1
-1.854,-0.015,0.0995
-1.8585,-0.023,0.0935
-1.8595,-0.0275,0.091
-1.861,-0.029,0.088
-1.864,-0.0295,0.086
-1.8645,-0.035,0.0835
-1.8705,-0.039,0.0815
-1.8765,-0.041,0.08
-1.879,-0.0485,0.0725
-1.878,-0.051,0.077
-1.8825,-0.054,0.0785
-1.883,-0.054,0.073
-1.881,-0.056,0.0715
-1.8915,-0.063,0.0685
-1.891,-0.0645,0.0655
-1.892,-0.069,0.0625
-1.9,-0.0745,0.0625
-1.904,-0.0785,0.0605
-1.9,-0.081,0.063
-1.8975,-0.084,0.0635
-1.9025,-0.09,0.0575
-1.9065,-0.0935,0.0575
-1.911,-0.1015,0.0555
-1.905,-0.1055,0.0535
-1.9095,-0.1085,0.0535
-1.917,-0.114,0.0535
-1.911,-0.1155,0.0505
-1.9115,-0.119,0.0435
-1.918,-0.12,0.044
-1.925,-0.1235,0.046
-1.9265,-0.1275,0.043
-1.924,-0.128,0.0415
-1.9255,-0.128,0.044
-1.9255,-0.1275,0.0405
-1.9215,-0.13,0.0375
-1.9295,-0.134,0.0385
-1.9365,-0.139,0.0425
-1.9365,-0.139,0.0435
-1.936,-0.132,0.0395
-1.9395,-0.1345,0.0355
-1.9395,-0.1375,0.036
-1.9375,-0.137,0.037
-1.936,-0.14,0.034
-1.929,-0.1375,0.0375
-1.935,-0.139,0.0365
-1.935,-0.1445,0.033
-1.936,-0.144,0.0325
-1.9405,-0.1435,0.036
-1.941,-0.1455,0.032
-1.939,-0.145,0.03
-1.934,-0.145,0.036
-1.94,-0.1485,0.0315
-1.946,-0.15,0.0285
-1.9515,-0.152,0.0255
-1.9565,-0.157,0.026
-1.9555,-0.1565,0.0325
-1.95,-0.156,0.0335
-1.952,-0.159,0.0315
-1.9505,-0.1565,0.0295
-1.944,-0.1565,0.0295
-1.9405,-0.1595,0.0275
-1.9395,-0.1605,0.0245
-1.9385,-0.1605,0.0285
-1.9345,-0.1585,0.0295
-1.943,-0.158,0.0285
-1.9485,-0.1615,0.029
-1.9445,-0.163,0.026
-1.9455,-0.162,0.023
-1.9455,-0.162,0.0195
-1.9415,-0.159,0.0255
-1.9405,-0.1575,0.0295
-1.941,-0.1585,0.0215
-1.944,-0.1575,0.0195
-1.944,-0.1555,0.0225
-1.945,-0.1585,0.0225
-1.9545,-0.162,0.023
-1.9545,-0.163,0.0245
-1.956,-0.1645,0.0275
-1.9545,-0.1605,0.028
-1.952,-0.156,0.029
-1.9585,-0.1535,0.0285
-1.958,-0.154,0.0225
-1.958,-0.1535,0.023
-1.957,-0.154,0.0265
-1.9575,-0.1585,0.0285
-1.9545,-0.1605,0.0255
-1.957,-0.1655,0.0205
-1.961,-0.1675,0.0225
-1.957,-0.1655,0.0215
-1.96,-0.166,0.0225
-1.96,-0.1685,0.024
-1.959,-0.168,0.0195
-1.966,-0.167,0.019
-1.9625,-0.1655,0.0195
-1.9465,-0.16,0.018
-1.9415,-0.1585,0.0145
-1.947,-0.157,0.02
-1.95,-0.158,0.022
-1.95,-0.16,0.0205
-1.9485,-0.158,0.0215
-1.9555,-0.16,0.023
-1.962,-0.16,0.0265
-1.9555,-0.1565,0.027
-1.9525,-0.1545,0.031
-1.9615,-0.156,0.0285
-1.96,-0.153,0.0285
-1.9535,-0.153,0.0275
-1.957,-0.159,0.026
-1.959,-0.16,0.0255
-1.956,-0.1635,0.0225
-1.9555,-0.165,0.024
-1.958,-0.164,0.0225
-1.959,-0.164,0.022
-1.959,-0.1655,0.0225
-1.9545,-0.1665,0.026
-1.9535,-0.165,0.029
-1.9585,-0.1665,0.0275
-1.956,-0.166,0.0285
-1.955,-0.163,0.031
-1.9555,-0.1635,0.0315
-1.948,-0.1605,0.0285
-1.9445,-0.1585,0.0305
-1.947,-0.159,0.033
-1.948,-0.159,0.028
-1.9535,-0.1575,0.03
-1.9545,-0.157,0.0255
-1.9495,-0.1595,0.0235
-1.9435,-0.156,0.0295
-1.9435,-0.1555,0.0285
-1.9485,-0.16,0.028
-1.955,-0.1635,0.0265
-1.962,-0.1665,0.0275
-1.9565,-0.163,0.0335
-1.953,-0.163,0.034
-1.9535,-0.164,0.029
-1.9545,-0.1645,0.032
-1.9555,-0.1635,0.0325
-1.951,-0.164,0.0315
-1.952,-0.1675,0.0295
-1.9515,-0.167,0.03
-1.9485,-0.1625,0.032
-1.9465,-0.159,0.03
-1.946,-0.159,0.031
-1.9435,-0.1605,0.029
-1.9435,-0.162,0.0265
-1.9395,-0.162,0.0245
-1.94,-0.163,0.02
-1.9475,-0.1635,0.021
-1.9485,-0.164,0.0155
-1.9405,-0.1615,0.021
-1.9345,-0.155,0.0275
-1.9385,-0.155,0.0235
-1.9365,-0.158,0.027
-1.932,-0.1585,0.0295
-1.9345,-0.16,0.0325
-1.9425,-0.1635,0.0305
-1.947,-0.1645,0.0325
-1.9465,-0.163,0.0345
-1.949,-0.166,0.032
-1.9515,-0.1675,0.034
-1.9455,-0.167,0.029
-1.9435,-0.1655,0.027
-1.9475,-0.1625,0.031
-1.951,-0.1665,0.0345
-1.952,-0.166,0.04
-1.945,-0.162,0.035
-1.948,-0.162,0.0295
-1.951,-0.16,0.0275
-1.9505,-0.1605,0.0245
-1.9545,-0.1605,0.027
-1.956,-0.16,0.0315
-1.953,-0.161,0.0295
-1.9525,-0.165,0.026
-1.9525,-0.164,0.0265
-1.9465,-0.163,0.0265
-1.9425,-0.165,0.027
-1.946,-0.1645,0.0285
-1.9525,-0.167,0.0345
