i,vx,vy
0.252,0.672,-0.332
0.25,0.6745,-0.3305
0.2415,0.672,-0.3295
0.2365,0.673,-0.329
0.2405,0.6715,-0.333
0.2435,0.6735,-0.3325
0.2445,0.674,-0.3265
0.2425,0.6715,-0.3265
0.2455,0.6725,-0.3375
0.2515,0.67,-0.3475
0.254,0.672,-0.346
0.247,0.6745,-0.342
0.239,0.672,-0.34
0.246,0.67,-0.3415
0.25,0.669,-0.3385
0.246,0.67,-0.3365
0.2415,0.6695,-0.3335
0.239,0.6645,-0.3265
0.2415,0.6615,-0.3275
0.2455,0.6705,-0.328
0.2485,0.6735,-0.3305
0.2505,0.666,-0.334
0.2515,0.6715,-0.339
0.255,0.676,-0.3445
0.2545,0.6775,-0.3315
0.2465,0.6775,-0.321
0.2485,0.6725,-0.3285
0.251,0.6685,-0.327
0.251,0.671,-0.322
0.2445,0.6715,-0.3235
0.241,0.668,-0.3225
0.2475,0.672,-0.328
0.244,0.6715,-0.328
0.249,0.6705,-0.3265
0.2495,0.6735,-0.332
0.24,0.6655,-0.327
0.238,0.6625,-0.32
0.2435,0.6695,-0.315
0.249,0.667,-0.315
0.2445,0.662,-0.3195
0.2525,0.6645,-0.3225
0.259,0.6655,-0.3235
0.253,0.667,-0.317
0.253,0.672,-0.3115
0.253,0.6665,-0.311
0.2575,0.665,-0.3145
0.262,0.6675,-0.3195
0.258,0.662,-0.331
0.2615,0.672,-0.344
0.2715,0.682,-0.3485
0.2755,0.6835,-0.356
0.293,0.689,-0.3625
0.313,0.699,-0.3735
0.3225,0.7115,-0.394
0.3365,0.7175,-0.4015
0.352,0.7345,-0.404
0.369,0.757,-0.404
0.3845,0.7715,-0.4055
0.3965,0.791,-0.405
0.418,0.8125,-0.401
0.44,0.833,-0.3995
0.449,0.851,-0.3895
0.452,0.873,-0.376
0.4655,0.8995,-0.3565
0.481,0.924,-0.3355
0.488,0.9595,-0.307
0.494,1.0,-0.2755
0.5085,1.054,-0.234
0.5545,1.1405,-0.1925
0.6025,1.2205,-0.153
0.6305,1.277,-0.1095
0.661,1.3445,-0.08
0.708,1.43,-0.0325
0.756,1.508,0.024
0.7785,1.574,0.084
0.804,1.642,0.1405
0.8355,1.701,0.1785
0.864,1.7555,0.22
0.8845,1.798,0.2535
0.888,1.806,0.286
0.884,1.8,0.327
0.8555,1.7635,0.366
0.816,1.701,0.4
0.7835,1.6465,0.424
0.7375,1.564,0.4305
0.6985,1.4805,0.427
0.6495,1.4005,0.4325
0.5765,1.301,0.456
0.507,1.1915,0.4795
0.4255,1.0825,0.5
0.3535,0.9905,0.517
0.249,0.8545,0.5465
0.121,0.698,0.592
0.0145,0.5505,0.6195
-0.0565,0.4475,0.6435
-0.114,0.3675,0.657
-0.1925,0.268,0.667
-0.2365,0.231,0.6785
-0.266,0.2145,0.679
-0.2765,0.2,0.6885
-0.267,0.1985,0.6815
-0.2635,0.2005,0.6625
-0.2585,0.2025,0.627
-0.248,0.192,0.5355
-0.2375,0.179,0.444
-0.231,0.158,0.335
-0.222,0.145,0.2265
-0.218,0.14,0.1815
-0.212,0.142,0.1395
-0.194,0.1685,0.085
-0.1595,0.208,0.0445
-0.1295,0.236,0.0275
-0.1075,0.2595,0.0105
-0.091,0.2795,-0.014
-0.083,0.285,-0.0235
-0.0905,0.2795,-0.036
-0.0945,0.2745,-0.059
-0.0835,0.291,-0.0725
-0.075,0.3085,-0.089
-0.065,0.3105,-0.117
-0.066,0.32,-0.141
-0.0765,0.3225,-0.1595
-0.0725,0.326,-0.1765
-0.056,0.341,-0.193
-0.049,0.35,-0.1995
-0.0405,0.36,-0.1965
-0.0415,0.3525,-0.198
-0.0515,0.348,-0.1955
-0.0495,0.351,-0.191
-0.051,0.352,-0.204
-0.0625,0.356,-0.211
-0.0635,0.3495,-0.215
-0.0595,0.349,-0.225
-0.0585,0.3565,-0.228
-0.054,0.3605,-0.2315
-0.051,0.356,-0.233
-0.0485,0.356,-0.226
-0.0485,0.361,-0.222
-0.0445,0.3665,-0.2175
-0.047,0.363,-0.207
-0.054,0.355,-0.2035
-0.0565,0.356,-0.212
-0.0615,0.353,-0.2265
-0.065,0.351,-0.242
-0.068,0.3505,-0.245
-0.075,0.3475,-0.2435
-0.08,0.337,-0.257
-0.0755,0.333,-0.27
-0.0735,0.3325,-0.2765
-0.073,0.328,-0.281
-0.081,0.328,-0.28
-0.087,0.329,-0.282
-0.0755,0.3345,-0.293
-0.0715,0.3405,-0.2975
-0.0725,0.346,-0.3075
-0.062,0.3575,-0.3235
-0.046,0.3715,-0.329
-0.0335,0.382,-0.324
-0.027,0.398,-0.3185
-0.024,0.4105,-0.326
-0.0215,0.4185,-0.3175
-0.0175,0.43,-0.297
-0.011,0.44,-0.2875
-0.0015,0.452,-0.2795
0.008,0.459,-0.277
0.0135,0.4645,-0.2655
0.017,0.465,-0.2585
0.016,0.4635,-0.2585
0.022,0.469,-0.2495
0.0295,0.4735,-0.2445
0.0335,0.4805,-0.2395
0.051,0.4925,-0.238
0.0695,0.5045,-0.2405
0.0785,0.5145,-0.2395
0.088,0.522,-0.2355
0.1045,0.5245,-0.242
0.118,0.532,-0.2525
0.1225,0.5415,-0.253
0.13,0.5515,-0.2595
0.1425,0.5645,-0.264
0.1605,0.5715,-0.2665
0.1785,0.581,-0.271
0.188,0.591,-0.265
0.196,0.599,-0.2675
0.2105,0.6035,-0.2735
0.23,0.617,-0.2715
0.2465,0.634,-0.28
0.2555,0.64,-0.2855
0.256,0.65,-0.2795
0.2535,0.666,-0.2755
0.2645,0.675,-0.274
0.2765,0.679,-0.276
0.2825,0.6845,-0.276
0.2845,0.6895,-0.279
0.2805,0.6895,-0.2785
0.292,0.694,-0.2775
0.303,0.704,-0.28
0.3065,0.7075,-0.2725
0.309,0.7095,-0.2745
0.3095,0.7125,-0.284
0.319,0.719,-0.285
0.326,0.7245,-0.282
0.334,0.7285,-0.2745
0.3355,0.732,-0.2745
0.329,0.732,-0.2795
0.3325,0.73,-0.2835
0.3395,0.7305,-0.287
0.3475,0.736,-0.2875
0.35,0.74,-0.2865
0.347,0.742,-0.292
0.3455,0.743,-0.296
0.3455,0.742,-0.294
0.344,0.744,-0.2905
0.3375,0.745,-0.289
0.3345,0.745,-0.29
0.3465,0.744,-0.294
0.351,0.746,-0.288
0.346,0.7465,-0.2845
0.3505,0.7415,-0.2925
0.356,0.7445,-0.2885
0.3525,0.746,-0.2885
0.3515,0.746,-0.2865
0.357,0.7465,-0.285
0.358,0.746,-0.288
0.3585,0.752,-0.289
0.362,0.7545,-0.291
0.37,0.7545,-0.2915
0.3705,0.7605,-0.2895
0.3595,0.755,-0.286
0.3595,0.7565,-0.285
0.3635,0.7635,-0.2845
0.3695,0.762,-0.2865
0.378,0.77,-0.282
0.3735,0.769,-0.2895
0.37,0.7575,-0.294
0.367,0.761,-0.28
0.3685,0.768,-0.2825
0.374,0.769,-0.279
0.376,0.774,-0.275
0.379,0.777,-0.281
0.38,0.7715,-0.28
0.3815,0.7665,-0.278
0.387,0.7745,-0.2815
0.3895,0.781,-0.2835
0.381,0.7815,-0.2735
0.3835,0.7855,-0.2755
0.378,0.779,-0.287
0.3795,0.7765,-0.288
0.3825,0.782,-0.289
0.3715,0.7795,-0.2985
0.3735,0.783,-0.296
0.3735,0.789,-0.288
0.389,0.7885,-0.293
0.4035,0.7855,-0.29
0.402,0.788,-0.2795
0.398,0.7875,-0.2775
0.388,0.791,-0.2715
0.3835,0.7935,-0.2715
0.3845,0.785,-0.2785
0.3825,0.7875,-0.2785
0.39,0.796,-0.2785
0.3865,0.7975,-0.2725
0.386,0.797,-0.2685
0.4045,0.7945,-0.268
0.407,0.795,-0.2665
0.4065,0.8,-0.276
0.4035,0.803,-0.28
0.402,0.8045,-0.276
0.402,0.8045,-0.282
0.3985,0.8005,-0.2835
0.3975,0.804,-0.287
0.3945,0.81,-0.2845
0.4065,0.812,-0.2785
0.4165,0.8125,-0.2775
0.414,0.8145,-0.2765
0.411,0.8155,-0.2885
0.4055,0.815,-0.2865
0.4025,0.81,-0.279
0.408,0.8155,-0.279
0.415,0.8215,-0.275
0.4175,0.8205,-0.267
0.4285,0.8275,-0.2615
0.4325,0.8195,-0.2635
0.419,0.8205,-0.266
0.415,0.831,-0.2735
0.4215,0.8295,-0.2795
0.426,0.8335,-0.27
0.428,0.8415,-0.264
0.4295,0.8445,-0.267
0.432,0.841,-0.2675
0.4375,0.8415,-0.268
0.4445,0.8485,-0.2635
0.448,0.849,-0.2735
0.45,0.855,-0.2755
0.4495,0.859,-0.268
0.458,0.8555,-0.2745
0.466,0.862,-0.271
0.4605,0.867,-0.2705
0.4635,0.8675,-0.2715
0.471,0.867,-0.271
0.4765,0.8715,-0.2665
0.477,0.876,-0.2675
0.4745,0.871,-0.2715
0.4785,0.8715,-0.2615
0.483,0.873,-0.266
0.4835,0.8755,-0.271
0.486,0.886,-0.2655
0.494,0.8885,-0.2665
0.4975,0.8915,-0.273
0.497,0.901,-0.27
0.503,0.9025,-0.2615
0.5075,0.906,-0.259
0.4975,0.9125,-0.2545
0.498,0.9185,-0.2595
0.5105,0.9215,-0.2625
0.5235,0.9225,-0.2585
0.5305,0.9225,-0.2605
0.5205,0.927,-0.256
0.5195,0.9295,-0.2535
0.5285,0.934,-0.2555
0.531,0.9385,-0.253
0.534,0.9335,-0.2545
0.538,0.9355,-0.2645
0.543,0.9455,-0.264
0.546,0.9475,-0.2585
0.5435,0.9425,-0.262
0.552,0.9495,-0.2585
0.558,0.9565,-0.2505
0.561,0.9595,-0.248
0.5645,0.9665,-0.2545
0.564,0.9665,-0.2525
0.5705,0.973,-0.246
0.584,0.9795,-0.2465
0.5815,0.981,-0.2415
0.57,0.989,-0.2335
0.58,0.9915,-0.23
0.59,0.995,-0.2325
0.589,0.9975,-0.233
0.589,1.0005,-0.235
0.5925,1.0075,-0.239
0.596,1.0075,-0.2385
0.6035,1.0105,-0.2355
0.6095,1.017,-0.2385
0.602,1.021,-0.2365
0.6,1.023,-0.2295
0.6,1.0235,-0.224
0.604,1.027,-0.219
0.615,1.028,-0.2225
0.6045,1.03,-0.217
0.609,1.0335,-0.2195
0.621,1.037,-0.2265
0.6235,1.0425,-0.2195
0.6345,1.04,-0.2145
0.627,1.0435,-0.2045
0.624,1.057,-0.1975
0.636,1.061,-0.199
0.638,1.06,-0.205
0.6355,1.0615,-0.2035
0.632,1.0605,-0.1985
0.632,1.066,-0.1995
0.641,1.0725,-0.201
0.643,1.0705,-0.204
0.648,1.0765,-0.2005
0.655,1.081,-0.1895
0.65,1.0795,-0.187
0.6515,1.0805,-0.191
0.6495,1.081,-0.1865
0.6415,1.073,-0.19
0.635,1.072,-0.194
0.633,1.0745,-0.1995
0.6415,1.0655,-0.2025
0.6355,1.063,-0.187
0.6255,1.0615,-0.191
0.629,1.0585,-0.191
0.6285,1.0605,-0.182
0.622,1.0595,-0.1835
0.6215,1.061,-0.188
0.6185,1.067,-0.1915
0.6145,1.069,-0.1865
0.6185,1.064,-0.185
0.6135,1.0595,-0.1785
0.604,1.056,-0.179
0.5995,1.049,-0.178
0.601,1.0475,-0.1685
0.6035,1.045,-0.17
0.6015,1.043,-0.18
0.591,1.0365,-0.1795
0.5805,1.03,-0.1755
0.5795,1.0295,-0.1795
0.575,1.026,-0.17
0.563,1.0205,-0.165
0.5545,1.0125,-0.174
0.5585,1.0085,-0.17
0.563,1.005,-0.169
0.5565,1.003,-0.1725
0.553,0.9975,-0.168
0.5525,0.9885,-0.1675
0.545,0.978,-0.1705
0.542,0.9695,-0.1745
0.537,0.967,-0.1775
0.53,0.9625,-0.1735
0.5195,0.9605,-0.1685
0.509,0.959,-0.1725
0.509,0.9485,-0.1775
0.4955,0.9385,-0.1755
0.483,0.939,-0.1705
0.4885,0.9365,-0.164
0.498,0.9295,-0.1675
0.4905,0.926,-0.1745
0.485,0.9245,-0.173
0.4785,0.9155,-0.1725
0.4605,0.9025,-0.179
0.456,0.8955,-0.191
0.451,0.894,-0.1915
0.45,0.891,-0.1935
0.4525,0.8825,-0.1905
0.443,0.875,-0.18
0.4315,0.867,-0.1705
0.431,0.8635,-0.163
0.4295,0.857,-0.1795
0.4205,0.8485,-0.1925
0.4125,0.8405,-0.1915
0.3975,0.8335,-0.1885
0.3985,0.829,-0.188
0.3955,0.819,-0.1905
0.3865,0.81,-0.1945
0.3885,0.8075,-0.2015
0.3825,0.8045,-0.2085
0.391,0.8035,-0.204
0.3945,0.8025,-0.201
0.383,0.7965,-0.2025
0.3725,0.7895,-0.203
0.364,0.786,-0.206
0.355,0.7775,-0.203
0.35,0.7675,-0.208
0.3445,0.763,-0.2095
0.3395,0.7585,-0.2085
0.346,0.756,-0.2055
0.343,0.7465,-0.199
0.3325,0.7435,-0.2065
0.322,0.741,-0.216
0.323,0.73,-0.217
0.326,0.731,-0.213
0.3145,0.729,-0.206
0.3145,0.7285,-0.2075
0.314,0.7265,-0.2135
0.305,0.719,-0.215
0.3015,0.7155,-0.212
0.3045,0.7155,-0.2105
0.3005,0.713,-0.213
0.2965,0.711,-0.2105
0.2955,0.708,-0.2105
0.2895,0.7,-0.215
0.2865,0.6985,-0.21
0.284,0.698,-0.197
0.2865,0.6965,-0.2065
0.281,0.689,-0.2175
0.269,0.68,-0.2115
0.267,0.6775,-0.2115
0.278,0.6755,-0.209
0.28,0.6675,-0.2105
0.2705,0.6655,-0.2075
0.261,0.664,-0.205
0.261,0.663,-0.214
0.274,0.664,-0.2125
0.271,0.6615,-0.207
0.2675,0.671,-0.202
0.2765,0.6655,-0.201
0.276,0.66,-0.202
0.263,0.6655,-0.202
0.2705,0.6655,-0.2045
0.2805,0.6645,-0.2065
0.271,0.664,-0.2045
0.274,0.662,-0.2115
0.2805,0.66,-0.218
0.2815,0.661,-0.2145
0.2765,0.6545,-0.2135
0.277,0.6595,-0.2125
0.277,0.6655,-0.2175
0.263,0.6585,-0.2145
0.2605,0.6545,-0.211
0.2685,0.655,-0.206
0.266,0.6555,-0.2035
0.259,0.656,-0.2025
0.2575,0.6565,-0.2015
0.256,0.652,-0.214
0.261,0.6515,-0.214
0.2665,0.655,-0.2155
0.261,0.6585,-0.217
0.2595,0.654,-0.211
0.264,0.653,-0.208
0.268,0.6565,-0.2105
0.271,0.656,-0.2105
0.266,0.6595,-0.213
0.267,0.6555,-0.211
0.2745,0.656,-0.2065
0.267,0.655,-0.215
0.265,0.652,-0.2125
0.273,0.6545,-0.2125
0.2715,0.652,-0.2035
0.27,0.6555,-0.2015
0.274,0.655,-0.2125
0.271,0.6535,-0.21
0.2695,0.6605,-0.2195
0.2765,0.662,-0.2205
0.2805,0.6645,-0.2105
0.278,0.6655,-0.2105
0.2745,0.6725,-0.221
0.2745,0.6735,-0.2325
0.2725,0.665,-0.2315
0.275,0.6655,-0.233
0.2785,0.663,-0.232
0.28,0.658,-0.2195
0.2835,0.66,-0.2215
0.2785,0.662,-0.22
0.2795,0.663,-0.214
0.29,0.6635,-0.216
0.2855,0.6635,-0.215
0.2825,0.667,-0.2185
0.2855,0.671,-0.222
0.281,0.675,-0.234
0.2825,0.6755,-0.231
0.2815,0.681,-0.232
0.2885,0.682,-0.241
0.2885,0.6745,-0.227
0.279,0.674,-0.2245
0.2865,0.6765,-0.231
0.2855,0.6785,-0.228
0.2785,0.6755,-0.2255
0.281,0.673,-0.2295
0.28,0.6725,-0.2305
0.2765,0.677,-0.229
0.2865,0.6785,-0.2305
0.295,0.6775,-0.227
0.286,0.6765,-0.234
0.283,0.674,-0.2425
0.2895,0.6825,-0.236
0.278,0.6795,-0.2305
0.273,0.679,-0.2285
0.285,0.682,-0.229
0.29,0.6735,-0.232
0.2925,0.675,-0.2245
0.287,0.676,-0.2215
0.281,0.6695,-0.23
0.2865,0.6675,-0.2255
0.298,0.6725,-0.218
0.301,0.6745,-0.221
0.297,0.6745,-0.2315
0.2915,0.671,-0.2335
0.2945,0.6745,-0.229
0.3015,0.6805,-0.2315
0.299,0.6755,-0.23
0.2855,0.6735,-0.2305
0.2825,0.674,-0.232
0.297,0.675,-0.228
0.2955,0.677,-0.223
0.2855,0.6765,-0.2245
0.286,0.6745,-0.23
0.281,0.675,-0.228
0.277,0.672,-0.222
0.2855,0.679,-0.2275
0.2825,0.677,-0.2315
0.278,0.668,-0.23
0.2805,0.68,-0.2295
0.282,0.674,-0.226
0.2795,0.6675,-0.22
0.2715,0.6725,-0.218
0.271,0.669,-0.231
0.2795,0.6675,-0.2365
0.2855,0.67,-0.228
0.2835,0.6695,-0.2315
0.2805,0.6675,-0.235
0.2815,0.669,-0.232
0.285,0.669,-0.229
0.289,0.6715,-0.228
0.288,0.674,-0.232
0.284,0.6745,-0.2255
0.282,0.672,-0.231
0.278,0.665,-0.2405
0.2885,0.6665,-0.24
0.2915,0.67,-0.2415
0.2825,0.671,-0.2325
0.2885,0.6725,-0.2325
0.2895,0.6725,-0.2345
0.2835,0.6725,-0.228
0.28,0.669,-0.2355
0.279,0.6675,-0.238
0.2755,0.666,-0.2345
0.2785,0.669,-0.231
0.285,0.6715,-0.233
0.2845,0.666,-0.2425
0.285,0.6725,-0.229
0.2695,0.668,-0.228
0.2585,0.657,-0.2405
0.273,0.6675,-0.239
0.2795,0.6695,-0.2395
0.278,0.667,-0.2395
0.2805,0.667,-0.2425
0.276,0.6605,-0.2445
0.2735,0.6585,-0.239
0.2785,0.665,-0.2335
0.273,0.6605,-0.2255
0.2665,0.6565,-0.229
0.268,0.663,-0.2295
0.269,0.661,-0.235
0.2705,0.657,-0.238
0.273,0.663,-0.2305
0.2685,0.6685,-0.2355
0.267,0.656,-0.2395
0.2715,0.657,-0.2315
0.2655,0.664,-0.229
0.267,0.66,-0.239
0.286,0.6625,-0.235
0.291,0.6605,-0.229
0.2785,0.6595,-0.233
0.2715,0.657,-0.235
0.2725,0.65,-0.237
0.279,0.65,-0.2395
0.2805,0.6445,-0.237
0.273,0.6445,-0.2385
0.2725,0.6535,-0.2325
0.273,0.652,-0.228
0.2695,0.6525,-0.2345
0.2775,0.6545,-0.226
0.284,0.6525,-0.2315
0.2745,0.6535,-0.2455
0.2705,0.657,-0.242
0.2745,0.6535,-0.2345
0.271,0.6575,-0.2375
0.2595,0.656,-0.2455
0.2545,0.6455,-0.2415
0.2525,0.6435,-0.234
0.254,0.645,-0.2255
0.271,0.647,-0.223
0.269,0.641,-0.2325
0.259,0.6385,-0.2315
0.263,0.6335,-0.2335
0.277,0.6395,-0.2315
0.2875,0.6445,-0.227
0.283,0.6385,-0.2275
0.2795,0.643,-0.2215
0.2715,0.6465,-0.228
0.2725,0.6475,-0.229
0.287,0.6495,-0.2255
0.288,0.655,-0.229
0.2885,0.659,-0.2275
0.292,0.663,-0.2225
0.297,0.669,-0.2205
0.307,0.6665,-0.226
0.3085,0.669,-0.217
0.3055,0.668,-0.201
0.2925,0.6635,-0.197
0.2905,0.6655,-0.188
0.295,0.6585,-0.175
0.2995,0.6605,-0.1655
0.3005,0.668,-0.1635
0.296,0.6635,-0.1595
0.3005,0.661,-0.1625
0.304,0.6645,-0.166
0.31,0.6685,-0.1675
0.3045,0.6645,-0.1795
0.2975,0.667,-0.183
0.299,0.672,-0.1825
0.304,0.675,-0.182
0.306,0.681,-0.1855
0.299,0.6795,-0.1895
0.306,0.684,-0.1875
0.3175,0.6895,-0.1855
0.3155,0.697,-0.194
0.312,0.7,-0.1965
0.324,0.695,-0.1865
0.3295,0.7,-0.1905
0.3205,0.701,-0.189
0.3305,0.7,-0.18
0.3345,0.702,-0.185
0.3245,0.699,-0.193
0.3285,0.701,-0.1815
0.335,0.6995,-0.168
0.3465,0.7,-0.1645
0.3415,0.712,-0.16
0.338,0.7085,-0.164
0.3515,0.7065,-0.1595
0.347,0.7145,-0.158
0.3455,0.718,-0.1565
0.3525,0.717,-0.1555
0.357,0.7135,-0.1625
0.3535,0.7195,-0.1545
0.3485,0.7165,-0.159
0.347,0.716,-0.168
0.352,0.722,-0.1745
0.362,0.718,-0.1785
0.3595,0.7195,-0.18
0.356,0.714,-0.182
0.347,0.7015,-0.1825
0.3455,0.7065,-0.1845
0.3485,0.7125,-0.1755
0.344,0.709,-0.176
0.35,0.703,-0.188
0.351,0.7,-0.176
0.3455,0.699,-0.16
0.343,0.697,-0.173
0.3385,0.703,-0.174
0.3335,0.7015,-0.172
0.3425,0.6975,-0.181
0.3495,0.7,-0.185
0.339,0.6985,-0.181
0.3305,0.692,-0.168
0.318,0.691,-0.172
0.306,0.688,-0.1815
0.3035,0.682,-0.193
0.295,0.675,-0.201
0.2805,0.667,-0.198
0.266,0.6655,-0.203
0.263,0.6495,-0.21
0.2645,0.644,-0.214
0.259,0.639,-0.215
0.2525,0.6305,-0.21
0.2435,0.6385,-0.2115
0.2435,0.6375,-0.2165
0.25,0.637,-0.214
0.2385,0.6285,-0.2175
0.2315,0.6205,-0.2165
0.2365,0.623,-0.2185
0.2365,0.62,-0.2235
0.2425,0.6225,-0.2185
0.2375,0.6245,-0.221
0.231,0.6205,-0.23
0.239,0.6215,-0.228
0.2455,0.6285,-0.2235
0.24,0.63,-0.2265
0.2345,0.6325,-0.23
0.2425,0.6265,-0.229
0.2435,0.624,-0.2245
0.2435,0.6315,-0.22
0.25,0.625,-0.217
0.2465,0.623,-0.213
0.2305,0.622,-0.2105
0.221,0.615,-0.213
0.236,0.6215,-0.211
0.243,0.6225,-0.2135
0.234,0.6185,-0.216
0.229,0.617,-0.217
0.2285,0.6155,-0.2205
0.2305,0.618,-0.2195
0.228,0.6135,-0.2265
0.2285,0.6155,-0.2305
0.2325,0.6145,-0.2355
0.2445,0.6165,-0.2365
0.2445,0.6225,-0.2225
0.247,0.6185,-0.223
0.253,0.618,-0.2175
0.2465,0.6165,-0.2095
0.249,0.615,-0.216
0.252,0.621,-0.217
0.255,0.62,-0.233
0.254,0.616,-0.2345
0.2565,0.6185,-0.2235
0.2545,0.617,-0.223
0.247,0.6165,-0.2235
0.266,0.6185,-0.227
0.272,0.6225,-0.2345
0.2575,0.6195,-0.2415
0.245,0.6165,-0.235
0.2335,0.6175,-0.235
0.238,0.6105,-0.229
0.2405,0.6135,-0.228
0.2405,0.618,-0.2365
0.24,0.619,-0.233
0.2315,0.6155,-0.2315
0.229,0.616,-0.231
0.235,0.614,-0.237
0.2355,0.6095,-0.2335
0.231,0.6135,-0.2275
0.238,0.612,-0.2325
0.2405,0.6105,-0.232
0.2305,0.6055,-0.2325
0.2265,0.603,-0.2325
0.2285,0.6085,-0.228
0.235,0.6085,-0.226
0.241,0.604,-0.227
0.246,0.6075,-0.2275
0.245,0.6085,-0.23
0.2345,0.6065,-0.2245
0.2285,0.603,-0.2265
0.235,0.602,-0.233
0.235,0.606,-0.236
0.226,0.6015,-0.2375
0.236,0.6075,-0.2355
0.2385,0.612,-0.237
0.231,0.6075,-0.2405
0.2365,0.611,-0.241
0.239,0.6075,-0.2355
0.239,0.6025,-0.2395
0.241,0.6085,-0.2415
0.235,0.6135,-0.2375
0.232,0.609,-0.237
0.2365,0.6095,-0.2385
0.2355,0.6115,-0.236
0.231,0.61,-0.2345
0.2355,0.607,-0.2485
0.238,0.6075,-0.251
0.2345,0.6105,-0.244
0.221,0.6065,-0.2445
0.217,0.6115,-0.2425
0.2225,0.609,-0.2475
0.2195,0.5975,-0.244
0.2255,0.607,-0.2375
0.2325,0.599,-0.2445
0.2375,0.591,-0.2435
0.2325,0.6005,-0.241
0.22,0.5935,-0.24
0.223,0.5975,-0.2435
0.2205,0.6045,-0.2575
0.223,0.605,-0.2615
0.236,0.6085,-0.2565
0.2295,0.613,-0.2575
0.217,0.6115,-0.2515
0.2175,0.605,-0.255
0.226,0.607,-0.251
0.2275,0.603,-0.2425
0.224,0.603,-0.247
0.217,0.603,-0.25
0.22,0.5985,-0.2525
0.2255,0.6005,-0.243
0.222,0.601,-0.2495
0.2235,0.5995,-0.257
0.2215,0.5985,-0.2535
0.2245,0.5975,-0.2605
0.2235,0.6025,-0.2605
0.221,0.612,-0.246
0.23,0.601,-0.2445
0.2265,0.5955,-0.251
0.233,0.607,-0.2545
0.23,0.606,-0.25
0.2275,0.602,-0.236
0.2325,0.5985,-0.2395
0.2225,0.602,-0.237
0.229,0.6,-0.2325
0.23,0.6005,-0.238
0.221,0.5995,-0.246
0.218,0.5905,-0.253
0.22,0.598,-0.244
0.2225,0.5995,-0.241
0.218,0.5965,-0.251
0.2205,0.594,-0.254
0.22,0.595,-0.2475
0.215,0.5965,-0.2425
0.211,0.592,-0.243
0.21,0.5915,-0.251
0.2245,0.5955,-0.246
0.231,0.605,-0.2465
0.223,0.5995,-0.248
0.2205,0.5955,-0.247
0.219,0.6065,-0.2485
0.217,0.6035,-0.2405
0.2185,0.594,-0.2445
0.22,0.598,-0.244
0.2185,0.6015,-0.2405
0.2155,0.606,-0.2415
0.2085,0.6105,-0.2375
0.2095,0.6035,-0.236
0.212,0.603,-0.2315
0.214,0.6035,-0.23
0.2225,0.6015,-0.233
0.223,0.6035,-0.234
0.2115,0.6025,-0.243
0.2105,0.6055,-0.234
0.2125,0.601,-0.232
0.2015,0.589,-0.2375
0.202,0.5935,-0.2295
0.2055,0.596,-0.228
0.2,0.589,-0.23
0.1995,0.5885,-0.2405
0.2095,0.5885,-0.236
0.216,0.5905,-0.234
0.2155,0.5945,-0.235
0.206,0.5985,-0.23
0.2085,0.5985,-0.229
0.218,0.596,-0.2365
0.2195,0.601,-0.247
0.22,0.605,-0.247
0.217,0.6065,-0.2565
0.2375,0.6175,-0.2575
0.2535,0.6295,-0.268
0.264,0.6415,-0.292
0.2835,0.6545,-0.2985
0.3015,0.659,-0.303
0.318,0.673,-0.3065
0.3255,0.6935,-0.3045
0.3315,0.7145,-0.309
0.345,0.7285,-0.3165
0.366,0.74,-0.325
0.386,0.7545,-0.3215
0.3895,0.7655,-0.305
0.384,0.788,-0.282
0.4065,0.81,-0.2695
0.4285,0.8465,-0.257
0.439,0.8865,-0.2285
0.441,0.927,-0.2015
0.444,0.981,-0.1585
0.483,1.0515,-0.1135
0.5345,1.139,-0.07
0.565,1.2075,-0.018
0.5895,1.269,0.0245
0.6285,1.344,0.061
0.6705,1.429,0.115
0.702,1.4945,0.178
0.728,1.5575,0.246
0.7395,1.625,0.297
0.7485,1.676,0.3265
0.777,1.7245,0.361
0.787,1.7515,0.396
0.7795,1.7455,0.441
0.761,1.715,0.484
0.7195,1.66,0.5095
0.696,1.6045,0.5315
0.663,1.534,0.5395
0.6075,1.4395,0.534
0.5635,1.356,0.5435
0.5075,1.2555,0.553
0.4405,1.1485,0.5575
0.3605,1.03,0.5775
0.289,0.925,0.6
0.2145,0.815,0.612
0.1025,0.667,0.6485
-0.0085,0.515,0.689
-0.09,0.3955,0.7205
-0.1365,0.3275,0.743
-0.2045,0.231,0.741
-0.2665,0.152,0.749
-0.282,0.125,0.7465
-0.282,0.1135,0.739
-0.2815,0.109,0.748
-0.28,0.1055,0.7365
-0.2745,0.108,0.7135
-0.268,0.113,0.65
-0.263,0.106,0.5555
-0.254,0.0895,0.474
-0.238,0.0755,0.3655
-0.2295,0.069,0.2865
-0.227,0.0745,0.263
-0.2225,0.083,0.239
-0.194,0.1155,0.194
-0.156,0.1485,0.1495
-0.1365,0.177,0.129
-0.126,0.2055,0.113
-0.117,0.2145,0.097
-0.1135,0.219,0.088
-0.1155,0.2215,0.072
-0.1155,0.23,0.042
-0.108,0.242,0.0185
-0.0935,0.2565,-0.001
-0.0805,0.273,-0.0245
-0.0805,0.274,-0.0545
-0.0855,0.283,-0.085
-0.086,0.2965,-0.097
-0.0755,0.3,-0.096
-0.069,0.3075,-0.103
-0.0695,0.311,-0.112
-0.073,0.3065,-0.114
-0.0715,0.3065,-0.1165
-0.0695,0.311,-0.1195
-0.0765,0.309,-0.1145
-0.072,0.3095,-0.1185
-0.064,0.3095,-0.125
-0.06,0.3085,-0.135
-0.07,0.306,-0.143
-0.075,0.309,-0.143
-0.0595,0.3135,-0.153
-0.059,0.31,-0.1495
-0.0585,0.3095,-0.1465
-0.0625,0.3115,-0.155
-0.072,0.3105,-0.158
-0.0715,0.3045,-0.16
-0.072,0.298,-0.173
-0.08,0.2965,-0.176
-0.09,0.299,-0.1805
-0.087,0.295,-0.192
-0.089,0.2875,-0.189
-0.093,0.2785,-0.196
-0.099,0.2725,-0.214
-0.1085,0.2725,-0.225
-0.107,0.272,-0.2275
-0.1065,0.28,-0.2325
-0.103,0.285,-0.2415
-0.098,0.282,-0.255
-0.0985,0.2865,-0.2655
-0.1025,0.29,-0.2675
-0.103,0.299,-0.2765
-0.087,0.3125,-0.288
-0.0785,0.3225,-0.2855
-0.069,0.338,-0.278
-0.0605,0.353,-0.273
-0.0535,0.368,-0.2625
-0.0425,0.379,-0.252
-0.0465,0.384,-0.2455
-0.0475,0.391,-0.238
-0.029,0.404,-0.2335
-0.0105,0.416,-0.22
-0.0135,0.4135,-0.2045
-0.0185,0.4105,-0.2025
-0.01,0.413,-0.1985
-0.0045,0.422,-0.196
-0.006,0.4305,-0.1855
0.007,0.4345,-0.178
0.0135,0.441,-0.176
0.0205,0.449,-0.1655
0.033,0.459,-0.1685
0.037,0.4715,-0.1685
0.052,0.479,-0.172
0.067,0.488,-0.1775
0.076,0.4935,-0.182
0.098,0.5045,-0.191
0.111,0.518,-0.1875
0.1115,0.5275,-0.1845
0.1195,0.533,-0.185
0.1335,0.5355,-0.195
0.15,0.5575,-0.2045
0.159,0.567,-0.207
0.1725,0.573,-0.2045
0.182,0.5835,-0.198
0.1845,0.5895,-0.199
0.1925,0.5965,-0.203
0.206,0.599,-0.207
0.221,0.6105,-0.2045
0.234,0.615,-0.2015
0.236,0.623,-0.2015
0.2325,0.633,-0.2035
0.232,0.6265,-0.205
0.223,0.6305,-0.2105
0.219,0.634,-0.214
0.2275,0.6415,-0.209
0.2475,0.65,-0.2065
0.2605,0.6455,-0.2115
0.254,0.654,-0.224
0.2565,0.658,-0.2225
0.269,0.661,-0.2175
0.2755,0.6675,-0.2125
0.271,0.6635,-0.2105
0.264,0.663,-0.2135
0.2625,0.665,-0.2085
0.2705,0.6645,-0.213
0.2745,0.6685,-0.2135
0.2735,0.673,-0.2065
0.276,0.6695,-0.208
0.275,0.665,-0.214
0.281,0.6695,-0.2115
0.29,0.677,-0.21
0.2885,0.677,-0.2095
0.2825,0.678,-0.2065
0.282,0.681,-0.2065
0.281,0.686,-0.207
0.2845,0.688,-0.2015
0.292,0.6845,-0.2085
0.3,0.6845,-0.2195
0.303,0.686,-0.213
0.2965,0.6915,-0.2115
0.2945,0.684,-0.2135
0.2945,0.676,-0.2175
0.293,0.681,-0.2095
0.2965,0.688,-0.2055
0.304,0.688,-0.216
0.3045,0.6865,-0.2145
0.301,0.692,-0.2155
0.304,0.697,-0.214
0.3065,0.703,-0.2125
0.306,0.7045,-0.2125
0.309,0.699,-0.211
0.3085,0.6995,-0.2105
0.3035,0.7045,-0.203
0.3035,0.7025,-0.2035
0.304,0.703,-0.203
0.3045,0.705,-0.202
0.302,0.708,-0.2015
0.3105,0.713,-0.204
0.323,0.7105,-0.206
0.3265,0.707,-0.201
0.3285,0.7115,-0.213
0.327,0.717,-0.21
0.32,0.722,-0.199
0.3205,0.722,-0.206
0.3285,0.713,-0.2075
0.3295,0.7165,-0.2105
0.3305,0.7175,-0.2045
0.3305,0.714,-0.202
0.326,0.719,-0.2
0.3205,0.714,-0.1965
0.3275,0.7145,-0.2025
0.3325,0.718,-0.2065
0.331,0.7175,-0.204
0.335,0.723,-0.204
0.3365,0.716,-0.21
0.334,0.717,-0.203
0.3355,0.7225,-0.2035
0.3445,0.7295,-0.214
0.3455,0.733,-0.208
0.3425,0.73,-0.201
0.3455,0.735,-0.21
0.342,0.739,-0.2025
0.339,0.7395,-0.195
0.3445,0.74,-0.2075
0.3445,0.7505,-0.2
0.346,0.749,-0.2005
0.353,0.743,-0.21
0.3505,0.7475,-0.2095
0.3485,0.749,-0.218
0.3485,0.752,-0.2195
0.353,0.755,-0.2085
0.363,0.753,-0.203
0.36,0.7525,-0.2135
0.3605,0.761,-0.215
0.367,0.766,-0.205
0.3745,0.767,-0.2025
0.377,0.7665,-0.206
0.374,0.769,-0.214
0.374,0.7725,-0.217
0.373,0.7795,-0.2125
0.3735,0.7755,-0.2045
0.3815,0.772,-0.2
0.3825,0.776,-0.206
0.3805,0.779,-0.211
0.3825,0.7835,-0.2115
0.387,0.784,-0.2085
0.395,0.788,-0.2085
0.392,0.787,-0.206
0.3985,0.785,-0.1975
0.4055,0.792,-0.2035
0.399,0.7985,-0.2055
0.4075,0.803,-0.2015
0.4115,0.8045,-0.2065
0.411,0.8045,-0.2115
0.413,0.805,-0.211
0.413,0.8095,-0.208
0.416,0.8145,-0.209
0.4165,0.8205,-0.2055
0.4185,0.8225,-0.206
0.4225,0.821,-0.206
0.4215,0.8305,-0.2035
0.43,0.8315,-0.2055
0.4385,0.8285,-0.206
0.4365,0.8315,-0.209
0.441,0.836,-0.2105
0.4425,0.8385,-0.2075
0.4465,0.8405,-0.208
0.458,0.8505,-0.208
0.469,0.8505,-0.2045
0.4685,0.853,-0.2035
0.4635,0.855,-0.205
0.47,0.859,-0.206
0.4785,0.866,-0.205
0.4905,0.872,-0.2055
0.4985,0.8795,-0.207
0.494,0.8815,-0.201
0.484,0.8875,-0.2
0.496,0.887,-0.2015
0.5075,0.8935,-0.202
0.503,0.898,-0.201
0.5125,0.904,-0.2005
0.5175,0.9085,-0.199
0.5065,0.9055,-0.1945
0.5025,0.9155,-0.2015
0.508,0.9135,-0.2005
0.508,0.921,-0.1905
0.5155,0.934,-0.1945
0.528,0.93,-0.1995
0.535,0.928,-0.2
0.5385,0.929,-0.192
0.5355,0.934,-0.1865
0.5365,0.9395,-0.1935
0.5345,0.941,-0.1965
0.528,0.947,-0.1945
0.5305,0.9575,-0.188
0.54,0.9535,-0.189
0.5515,0.958,-0.1895
0.5605,0.964,-0.182
0.5615,0.962,-0.183
0.5615,0.963,-0.1885
0.5645,0.97,-0.1855
0.569,0.971,-0.1745
0.578,0.972,-0.1745
0.578,0.9885,-0.1745
0.5775,0.992,-0.1725
0.577,0.988,-0.1775
0.579,0.992,-0.178
0.5885,0.992,-0.18
0.5915,0.9935,-0.1825
0.5965,1.006,-0.1745
0.5925,1.006,-0.1685
0.586,1.001,-0.169
0.5895,1.003,-0.1695
0.587,1.005,-0.1675
0.584,1.0175,-0.1645
0.5855,1.0175,-0.1665
0.5945,1.0155,-0.171
0.597,1.019,-0.167
0.5945,1.025,-0.1595
0.5985,1.0285,-0.159
0.5965,1.0255,-0.151
0.591,1.028,-0.1415
0.5895,1.023,-0.143
0.593,1.0235,-0.154
0.5945,1.024,-0.157
0.59,1.0215,-0.1515
0.585,1.018,-0.151
0.5865,1.019,-0.146
0.5855,1.023,-0.1425
0.5825,1.017,-0.1375
0.584,1.0195,-0.143
0.581,1.0215,-0.1425
0.5765,1.013,-0.1405
0.574,1.0095,-0.1495
0.566,1.007,-0.1445
0.5595,1.0065,-0.1375
0.557,1.0065,-0.1395
0.554,1.0015,-0.1405
0.553,1.0025,-0.1375
0.5555,0.9985,-0.133
0.5515,0.992,-0.1315
0.542,0.9895,-0.1325
0.5405,0.979,-0.133
0.5355,0.978,-0.1345
0.532,0.981,-0.1325
0.523,0.974,-0.1345
0.5145,0.9745,-0.125
0.5125,0.9685,-0.116
0.506,0.9595,-0.13
0.504,0.951,-0.1275
0.493,0.9485,-0.123
0.491,0.9435,-0.1245
0.5005,0.9345,-0.1225
0.5,0.934,-0.1265
0.4905,0.9265,-0.121
0.4855,0.922,-0.122
0.477,0.909,-0.1215
0.4695,0.902,-0.1255
0.474,0.905,-0.136
0.471,0.8945,-0.13
0.4635,0.8945,-0.13
0.453,0.8875,-0.131
0.4415,0.8745,-0.1315
0.4395,0.878,-0.126
0.44,0.8705,-0.1205
0.431,0.8575,-0.1355
0.427,0.847,-0.145
0.4215,0.843,-0.138
0.4165,0.8405,-0.138
0.4165,0.8315,-0.141
0.399,0.819,-0.1335
0.395,0.8125,-0.132
0.399,0.814,-0.1265
0.391,0.813,-0.126
0.392,0.8095,-0.139
0.39,0.8,-0.146
0.3855,0.8015,-0.148
0.386,0.795,-0.1445
0.377,0.784,-0.144
0.3655,0.775,-0.152
0.3635,0.766,-0.1555
0.361,0.7655,-0.153
0.363,0.7575,-0.1535
0.361,0.7545,-0.156
0.353,0.748,-0.1545
0.345,0.7435,-0.155
0.326,0.738,-0.1545
0.33,0.727,-0.147
0.326,0.723,-0.148
0.313,0.7205,-0.165
0.3105,0.7115,-0.1695
0.2955,0.703,-0.1635
0.303,0.7005,-0.1655
0.3065,0.693,-0.173
0.304,0.6885,-0.1795
0.304,0.685,-0.1735
0.2935,0.683,-0.167
0.2915,0.6765,-0.1695
0.289,0.6705,-0.164
0.2945,0.6755,-0.1635
0.2945,0.67,-0.17
0.2835,0.6585,-0.1715
0.283,0.6555,-0.1805
0.2815,0.651,-0.177
0.2725,0.6515,-0.173
0.258,0.6455,-0.178
0.249,0.6375,-0.174
0.25,0.636,-0.175
0.248,0.634,-0.1765
0.2455,0.636,-0.177
0.2435,0.6345,-0.1765
0.2375,0.638,-0.172
0.2285,0.6385,-0.1745
0.2275,0.633,-0.179
0.226,0.63,-0.179
0.228,0.628,-0.182
0.233,0.6255,-0.179
0.2325,0.6195,-0.171
0.2355,0.618,-0.174
0.228,0.614,-0.1765
0.226,0.615,-0.1685
0.226,0.6165,-0.177
0.2205,0.6145,-0.1775
0.2215,0.6115,-0.17
0.2225,0.613,-0.176
0.228,0.619,-0.1685
0.2245,0.6175,-0.167
0.22,0.613,-0.176
0.219,0.61,-0.175
0.22,0.611,-0.172
0.224,0.6115,-0.172
0.222,0.606,-0.181
0.2165,0.6015,-0.186
0.2165,0.6105,-0.179
0.22,0.608,-0.1785
0.2285,0.6105,-0.1725
0.234,0.617,-0.173
0.225,0.6105,-0.181
0.2255,0.609,-0.1895
0.2295,0.6085,-0.1945
0.221,0.609,-0.1855
0.22,0.607,-0.181
0.224,0.607,-0.183
0.23,0.61,-0.1825
0.227,0.6145,-0.181
0.229,0.609,-0.1815
0.234,0.6055,-0.174
0.227,0.61,-0.175
0.2295,0.6105,-0.178
0.23,0.61,-0.1825
0.233,0.604,-0.1835
0.2435,0.605,-0.1775
0.239,0.6085,-0.18
0.233,0.6065,-0.18
0.2315,0.6095,-0.1845
0.228,0.6145,-0.181
0.2325,0.61,-0.1835
0.237,0.614,-0.184
0.2385,0.62,-0.183
0.241,0.617,-0.1835
0.2445,0.62,-0.1795
0.24,0.6195,-0.183
0.2335,0.615,-0.181
0.239,0.614,-0.1795
0.2405,0.6125,-0.1785
0.243,0.6155,-0.178
0.247,0.622,-0.1755
0.243,0.6225,-0.1765
0.231,0.6235,-0.1735
0.231,0.6215,-0.164
0.2405,0.624,-0.17
0.2455,0.628,-0.175
0.2385,0.6275,-0.1795
0.24,0.6265,-0.1835
0.246,0.6245,-0.185
0.241,0.627,-0.1885
0.239,0.6305,-0.187
0.2405,0.629,-0.184
0.248,0.628,-0.1805
0.2515,0.6315,-0.187
0.2455,0.633,-0.1915
0.2395,0.6335,-0.1865
0.239,0.6355,-0.1745
0.245,0.6425,-0.172
0.2485,0.643,-0.186
0.2465,0.637,-0.1905
0.2495,0.6385,-0.1905
0.248,0.6385,-0.1925
0.24,0.635,-0.1845
0.2365,0.6375,-0.182
0.2385,0.64,-0.1895
0.241,0.636,-0.1855
0.242,0.637,-0.188
0.249,0.633,-0.191
0.251,0.6305,-0.1785
0.246,0.634,-0.173
0.2475,0.634,-0.177
0.2465,0.634,-0.179
0.2475,0.6345,-0.1765
0.252,0.643,-0.184
0.2435,0.6455,-0.1815
0.2465,0.64,-0.17
0.249,0.635,-0.17
0.239,0.63,-0.1725
0.243,0.6345,-0.1805
0.2475,0.638,-0.182
0.248,0.6365,-0.179
0.2465,0.6425,-0.178
0.2475,0.6435,-0.185
0.2445,0.6325,-0.183
0.242,0.6315,-0.178
0.242,0.638,-0.178
0.2365,0.639,-0.173
0.2395,0.637,-0.1785
0.238,0.632,-0.181
0.2425,0.6295,-0.184
0.245,0.631,-0.1835
0.2405,0.628,-0.1905
0.241,0.6235,-0.19
0.2425,0.624,-0.18
0.2405,0.6265,-0.178
0.2395,0.628,-0.1745
0.243,0.6345,-0.1795
0.241,0.634,-0.1705
0.2435,0.6295,-0.165
0.24,0.6315,-0.1685
0.235,0.631,-0.1735
0.2455,0.6355,-0.1835
0.2525,0.637,-0.18
0.2555,0.6315,-0.1715
0.258,0.632,-0.1585
0.2505,0.6315,-0.159
0.238,0.6255,-0.174
0.2395,0.626,-0.1785
0.252,0.6275,-0.183
0.2545,0.623,-0.1875
0.2515,0.6255,-0.1785
0.245,0.6195,-0.1785
0.2385,0.618,-0.178
0.23,0.618,-0.175
0.2265,0.619,-0.177
0.2285,0.6225,-0.1845
0.2355,0.6235,-0.186
0.238,0.626,-0.1745
0.2255,0.618,-0.184
0.225,0.617,-0.187
0.2275,0.62,-0.1835
0.222,0.6215,-0.1845
0.222,0.6185,-0.1835
0.232,0.626,-0.185
0.2285,0.627,-0.175
0.216,0.615,-0.167
0.221,0.62,-0.174
0.227,0.6195,-0.188
0.2235,0.6125,-0.1895
0.228,0.6135,-0.1895
0.2305,0.6195,-0.19
0.226,0.617,-0.1745
0.228,0.6185,-0.172
0.2285,0.622,-0.176
0.2285,0.6215,-0.1745
0.2315,0.6165,-0.184
0.2315,0.613,-0.1855
0.2305,0.6185,-0.183
0.232,0.623,-0.181
0.235,0.621,-0.1725
0.236,0.616,-0.176
0.234,0.615,-0.184
0.2345,0.6165,-0.188
0.238,0.622,-0.1885
0.235,0.626,-0.1855
0.235,0.6225,-0.1845
0.2425,0.6175,-0.184
0.25,0.6235,-0.1835
0.256,0.621,-0.184
0.252,0.613,-0.1845
0.253,0.618,-0.184
0.254,0.619,-0.1805
0.249,0.6175,-0.171
0.252,0.618,-0.155
0.2565,0.616,-0.1405
0.26,0.6135,-0.1265
0.255,0.615,-0.1125
0.254,0.614,-0.1075
0.2555,0.6175,-0.1065
0.2575,0.6235,-0.112
0.2595,0.6185,-0.1195
0.26,0.6225,-0.1215
0.2605,0.6235,-0.1265
0.2565,0.617,-0.1275
0.254,0.619,-0.12
0.2525,0.6185,-0.1135
0.2485,0.62,-0.114
0.2455,0.6215,-0.114
0.2455,0.6225,-0.1085
0.2455,0.6235,-0.11
0.247,0.621,-0.117
0.2555,0.621,-0.1175
0.267,0.623,-0.1175
0.2625,0.626,-0.1185
0.259,0.6275,-0.1265
0.2675,0.6335,-0.133
0.272,0.6405,-0.125
0.275,0.644,-0.1215
0.2775,0.654,-0.1195
0.285,0.654,-0.113
0.29,0.644,-0.1165
0.291,0.6475,-0.116
0.2905,0.649,-0.1155
0.286,0.652,-0.115
0.2835,0.655,-0.107
0.2855,0.652,-0.107
0.294,0.656,-0.101
0.298,0.655,-0.0965
0.2995,0.658,-0.1005
0.297,0.664,-0.1015
0.302,0.669,-0.099
0.317,0.677,-0.098
0.3185,0.672,-0.115
0.318,0.678,-0.1175
0.3205,0.686,-0.12
0.3215,0.6735,-0.1355
0.316,0.6715,-0.136
0.3135,0.672,-0.1395
0.315,0.67,-0.14
0.3125,0.678,-0.1375
0.307,0.675,-0.139
0.2975,0.6645,-0.135
0.2955,0.6595,-0.1325
0.297,0.661,-0.136
0.298,0.6645,-0.1405
0.2975,0.659,-0.149
0.2915,0.652,-0.148
0.29,0.6485,-0.141
0.2895,0.6445,-0.1355
0.2825,0.6395,-0.1325
0.2755,0.6355,-0.1405
0.2675,0.6365,-0.1475
0.2605,0.64,-0.1565
0.249,0.632,-0.1605
0.237,0.6235,-0.1565
0.2405,0.628,-0.1625
0.233,0.6245,-0.1745
0.2245,0.613,-0.186
0.2245,0.6075,-0.1925
0.218,0.6025,-0.1895
0.2055,0.5975,-0.1835
0.203,0.594,-0.181
0.21,0.5875,-0.183
0.2025,0.584,-0.1815
0.199,0.58,-0.1805
0.2065,0.578,-0.181
0.2075,0.5805,-0.1745
0.2,0.5785,-0.1865
0.199,0.579,-0.195
0.203,0.5825,-0.197
0.205,0.5855,-0.1995
0.2075,0.5845,-0.1895
0.211,0.583,-0.195
0.209,0.585,-0.1995
0.208,0.583,-0.1925
0.2065,0.5785,-0.1905
0.197,0.5745,-0.199
0.197,0.576,-0.21
0.198,0.577,-0.211
0.1955,0.577,-0.207
0.1995,0.5845,-0.2
0.1985,0.585,-0.1935
0.1925,0.5775,-0.194
0.198,0.573,-0.201
0.202,0.577,-0.205
0.1965,0.5815,-0.208
0.1945,0.581,-0.2035
0.1995,0.58,-0.2025
0.2,0.575,-0.208
0.197,0.575,-0.2035
0.1985,0.576,-0.2085
0.194,0.5715,-0.2125
0.199,0.571,-0.21
0.205,0.5715,-0.2055
0.1965,0.5725,-0.203
0.2005,0.566,-0.2055
0.21,0.565,-0.2075
0.204,0.569,-0.207
0.188,0.5695,-0.2015
0.1785,0.568,-0.201
0.1815,0.559,-0.2035
0.1905,0.565,-0.2025
0.188,0.5715,-0.2015
0.1845,0.571,-0.2055
0.1775,0.5695,-0.2075
0.1675,0.563,-0.206
0.181,0.5685,-0.209
0.1845,0.567,-0.2055
0.1875,0.566,-0.2085
0.1855,0.572,-0.2165
0.175,0.565,-0.2155
0.1785,0.565,-0.212
0.184,0.571,-0.2075
0.1845,0.5665,-0.2135
0.184,0.57,-0.2115
0.1845,0.571,-0.2085
0.183,0.5635,-0.2125
0.186,0.5695,-0.215
0.182,0.569,-0.219
0.177,0.5655,-0.2175
0.1785,0.57,-0.2185
0.181,0.5735,-0.216
0.1785,0.569,-0.209
0.182,0.5665,-0.204
0.1875,0.5695,-0.2025
0.1825,0.5715,-0.2035
0.1825,0.574,-0.2115
0.1845,0.5645,-0.215
0.1815,0.5595,-0.212
0.1755,0.5655,-0.2125
0.1775,0.567,-0.21
0.1825,0.5725,-0.209
0.19,0.568,-0.211
0.193,0.5605,-0.2175
0.1885,0.5705,-0.212
0.1865,0.571,-0.2055
0.1835,0.558,-0.2115
0.1905,0.566,-0.2075
0.1895,0.5755,-0.2085
0.1835,0.571,-0.2165
0.183,0.566,-0.2195
0.1875,0.5645,-0.2195
0.188,0.569,-0.2215
0.1795,0.57,-0.2215
0.176,0.5695,-0.2195
0.175,0.5665,-0.2175
0.177,0.5665,-0.221
0.1785,0.5675,-0.2215
0.178,0.5655,-0.2185
0.179,0.567,-0.217
0.182,0.5675,-0.2135
0.182,0.566,-0.219
0.185,0.568,-0.225
0.1865,0.5675,-0.221
0.1805,0.5665,-0.217
0.174,0.5655,-0.2205
0.1715,0.5735,-0.219
0.1765,0.5725,-0.224
0.1775,0.563,-0.22
0.174,0.566,-0.215
0.1715,0.5655,-0.2185
0.1725,0.5665,-0.2055
0.1745,0.57,-0.202
0.1765,0.567,-0.219
0.1765,0.5635,-0.224
0.1805,0.5575,-0.2175
0.186,0.5545,-0.22
0.1805,0.5515,-0.219
0.174,0.5525,-0.2265
0.1705,0.561,-0.2285
0.17,0.5585,-0.2235
0.174,0.562,-0.226
0.173,0.564,-0.23
0.1705,0.5605,-0.2285
0.172,0.563,-0.2215
0.1765,0.5645,-0.2175
0.1765,0.562,-0.2185
0.177,0.556,-0.2185
0.182,0.561,-0.2085
0.1835,0.5615,-0.21
0.178,0.556,-0.214
0.169,0.553,-0.2185
0.166,0.552,-0.225
0.1655,0.5525,-0.2295
0.167,0.554,-0.224
0.178,0.558,-0.2205
0.181,0.554,-0.2255
0.18,0.558,-0.2215
0.1795,0.5605,-0.2235
0.175,0.5575,-0.219
0.1775,0.5555,-0.2175
0.174,0.5525,-0.223
0.1705,0.5595,-0.229
0.174,0.5565,-0.232
0.181,0.5545,-0.231
0.1875,0.5575,-0.2285
0.184,0.553,-0.2245
0.181,0.5535,-0.222
0.1795,0.551,-0.2235
0.1785,0.55,-0.23
0.1865,0.5525,-0.2245
0.189,0.5535,-0.227
0.1815,0.5505,-0.2235
0.178,0.545,-0.2225
0.177,0.545,-0.228
0.1785,0.5455,-0.223
0.1855,0.55,-0.2245
0.188,0.5505,-0.2165
0.189,0.551,-0.217
0.194,0.5585,-0.221
0.1925,0.554,-0.2205
0.1905,0.555,-0.222
0.193,0.558,-0.219
0.192,0.558,-0.221
0.191,0.5605,-0.219
0.189,0.5565,-0.2185
0.185,0.5565,-0.222
0.1845,0.557,-0.222
0.1895,0.5585,-0.2175
0.188,0.5605,-0.212
0.1775,0.562,-0.21
0.1815,0.5555,-0.2165
0.188,0.551,-0.2165
0.1815,0.552,-0.2125
0.184,0.5525,-0.2125
0.1885,0.5595,-0.2105
0.1875,0.5595,-0.218
0.189,0.5575,-0.2245
0.1985,0.5655,-0.23
0.2035,0.569,-0.236
0.206,0.5755,-0.242
0.2205,0.5875,-0.2525
0.2365,0.598,-0.265
0.259,0.6155,-0.27
0.269,0.6175,-0.281
0.2755,0.6255,-0.2965
0.2995,0.6455,-0.3005
0.324,0.6645,-0.2975
0.3425,0.6865,-0.2985
0.3525,0.704,-0.304
0.3605,0.726,-0.2935
0.3655,0.741,-0.286
0.3735,0.7575,-0.2835
0.3785,0.779,-0.2635
0.385,0.8075,-0.242
0.389,0.8375,-0.212
0.394,0.8725,-0.184
0.404,0.9185,-0.1605
0.4225,0.9715,-0.121
0.461,1.055,-0.079
0.501,1.133,-0.0355
0.532,1.188,0.0065
0.566,1.254,0.053
0.6015,1.3365,0.103
0.6275,1.408,0.1595
0.6595,1.469,0.221
0.691,1.5445,0.2725
0.7185,1.602,0.3145
0.747,1.647,0.3505
0.761,1.686,0.38
0.7605,1.69,0.415
0.741,1.6735,0.456
0.707,1.625,0.4885
0.6835,1.5635,0.515
0.6545,1.501,0.5375
0.603,1.4025,0.5395
0.56,1.3235,0.536
0.5115,1.2445,0.541
0.452,1.1365,0.553
0.3975,1.026,0.563
0.3285,0.9115,0.574
0.2395,0.8025,0.589
0.1315,0.673,0.6205
0.025,0.529,0.6625
-0.0605,0.3925,0.6905
-0.1145,0.307,0.7195
-0.181,0.2295,0.727
-0.247,0.146,0.732
-0.2735,0.114,0.739
-0.2845,0.096,0.7245
-0.2825,0.084,0.732
-0.2765,0.0805,0.7355
-0.278,0.0805,0.7145
-0.2875,0.0785,0.684
-0.2655,0.074,0.597
-0.2555,0.057,0.5185
-0.2615,0.038,0.4325
-0.2455,0.0295,0.324
-0.2435,0.0235,0.276
-0.2405,0.025,0.2445
-0.2195,0.05,0.202
-0.19,0.087,0.165
-0.167,0.1225,0.143
-0.143,0.1515,0.1225
-0.126,0.165,0.0985
-0.1265,0.1795,0.076
-0.123,0.182,0.0595
-0.116,0.1895,0.044
-0.11,0.2035,0.0235
-0.106,0.218,0.0065
-0.098,0.2315,-0.0165
-0.0975,0.2315,-0.0425
-0.1005,0.2415,-0.067
-0.0925,0.255,-0.0845
-0.086,0.2615,-0.093
-0.08,0.2715,-0.1065
-0.076,0.2755,-0.115
-0.07,0.271,-0.12
-0.0705,0.2725,-0.1165
-0.0775,0.269,-0.1155
-0.0745,0.2655,-0.119
-0.07,0.2685,-0.1205
-0.078,0.264,-0.124
-0.09,0.2625,-0.1255
-0.0885,0.2635,-0.136
-0.078,0.268,-0.141
-0.072,0.2715,-0.151
-0.075,0.266,-0.155
-0.0815,0.2615,-0.1385
-0.0855,0.2595,-0.1415
-0.095,0.26,-0.1475
-0.1,0.2565,-0.1395
-0.096,0.257,-0.144
-0.1005,0.2565,-0.1555
-0.1045,0.2565,-0.163
-0.1105,0.2645,-0.173
-0.1165,0.255,-0.178
-0.1215,0.239,-0.1825
-0.1235,0.2405,-0.189
-0.1205,0.2435,-0.1965
-0.124,0.236,-0.206
-0.1285,0.2325,-0.2165
-0.1305,0.2395,-0.218
-0.1195,0.2455,-0.225
-0.109,0.248,-0.235
-0.108,0.252,-0.2355
-0.1065,0.2575,-0.2445
-0.098,0.269,-0.258
-0.092,0.28,-0.2655
-0.0935,0.2955,-0.263
-0.0805,0.3075,-0.2655
-0.075,0.318,-0.2555
-0.078,0.328,-0.236
-0.0665,0.3335,-0.23
-0.0515,0.3455,-0.222
-0.046,0.3555,-0.2195
-0.0475,0.367,-0.214
-0.0465,0.372,-0.1985
-0.046,0.374,-0.186
-0.0355,0.3775,-0.1775
-0.023,0.3795,-0.169
-0.0195,0.389,-0.1665
-0.0125,0.397,-0.164
-0.002,0.4085,-0.155
0.013,0.4215,-0.1585
0.026,0.428,-0.1605
0.034,0.437,-0.1585
0.042,0.441,-0.16
0.05,0.4435,-0.157
0.0625,0.455,-0.1625
0.076,0.466,-0.1695
0.087,0.4785,-0.1715
0.0895,0.4895,-0.1735
0.0945,0.4915,-0.18
0.1115,0.502,-0.18
0.1305,0.52,-0.1755
0.1465,0.528,-0.18
0.1555,0.5385,-0.183
0.1705,0.547,-0.181
0.169,0.55,-0.186
0.163,0.559,-0.1965
0.175,0.562,-0.1965
0.181,0.568,-0.194
0.197,0.5755,-0.1935
0.207,0.5785,-0.192
0.21,0.582,-0.196
0.2185,0.5885,-0.1955
0.2205,0.5955,-0.19
0.2245,0.5955,-0.1965
0.2375,0.604,-0.2035
0.2415,0.616,-0.197
0.24,0.623,-0.195
0.239,0.6235,-0.198
0.2395,0.6275,-0.2
0.255,0.63,-0.1995
0.2565,0.63,-0.203
0.2535,0.638,-0.2025
0.2595,0.6375,-0.2045
0.2595,0.6355,-0.205
0.2645,0.637,-0.1945
0.2705,0.639,-0.193
0.273,0.642,-0.1925
0.277,0.6435,-0.1905
0.273,0.6425,-0.1875
0.268,0.64,-0.1955
0.266,0.641,-0.204
0.262,0.6395,-0.2035
0.261,0.6385,-0.209
0.265,0.637,-0.208
0.2665,0.6395,-0.2025
0.264,0.635,-0.2065
0.271,0.6365,-0.205
0.2765,0.6435,-0.1975
0.28,0.6435,-0.199
0.281,0.65,-0.203
0.279,0.648,-0.2065
0.2825,0.647,-0.206
0.282,0.65,-0.2075
0.2845,0.6525,-0.206
0.2845,0.659,-0.202
0.2855,0.659,-0.203
0.29,0.6565,-0.2025
0.2895,0.6555,-0.2055
0.29,0.655,-0.206
0.284,0.6645,-0.1945
0.2805,0.666,-0.1885
0.285,0.658,-0.196
0.2875,0.6615,-0.197
0.2865,0.662,-0.194
0.286,0.6655,-0.1915
0.281,0.663,-0.191
0.2835,0.6645,-0.189
0.2825,0.666,-0.1865
0.286,0.6635,-0.1955
0.2965,0.668,-0.203
0.293,0.6685,-0.1955
0.291,0.671,-0.1885
0.292,0.671,-0.188
0.2935,0.6725,-0.1875
0.296,0.6725,-0.1975
0.3015,0.6775,-0.1985
0.3025,0.68,-0.1915
0.3005,0.6745,-0.201
0.3085,0.679,-0.1985
0.3095,0.68,-0.195
0.3065,0.68,-0.2005
0.3095,0.683,-0.202
0.309,0.6855,-0.2045
0.31,0.685,-0.2065
0.309,0.683,-0.2085
0.3045,0.6805,-0.202
0.3095,0.685,-0.2035
0.32,0.6905,-0.202
0.321,0.687,-0.199
0.3195,0.692,-0.207
0.3185,0.695,-0.2085
0.318,0.695,-0.205
0.3235,0.705,-0.201
0.325,0.709,-0.1945
0.3295,0.706,-0.196
0.333,0.703,-0.2045
0.3285,0.706,-0.206
0.3345,0.71,-0.2045
0.3405,0.7135,-0.199
0.338,0.7135,-0.2
0.3395,0.714,-0.1985
0.328,0.7225,-0.194
0.325,0.7185,-0.1935
0.342,0.716,-0.194
0.3435,0.724,-0.199
0.348,0.725,-0.1885
0.348,0.7215,-0.1875
0.3495,0.723,-0.1945
0.3575,0.727,-0.197
0.36,0.73,-0.1995
0.3675,0.7355,-0.196
0.367,0.7295,-0.1925
0.361,0.737,-0.194
0.3635,0.741,-0.195
0.3725,0.7325,-0.1925
0.376,0.743,-0.204
0.375,0.7415,-0.2045
0.3715,0.7455,-0.1935
0.374,0.756,-0.194
0.383,0.7535,-0.1965
0.3865,0.7545,-0.1975
0.387,0.759,-0.202
0.391,0.7665,-0.202
0.3925,0.7655,-0.1985
0.3935,0.766,-0.198
0.4045,0.773,-0.197
0.406,0.781,-0.1955
0.4085,0.782,-0.192
0.414,0.7785,-0.1955
0.416,0.784,-0.2045
0.4225,0.7865,-0.202
0.421,0.7905,-0.1955
0.423,0.796,-0.193
0.425,0.796,-0.1975
0.422,0.7985,-0.2015
0.425,0.803,-0.1995
0.4355,0.8085,-0.2025
0.4375,0.812,-0.2035
0.434,0.8145,-0.199
0.435,0.8135,-0.199
0.438,0.818,-0.202
0.44,0.8255,-0.1995
0.443,0.8275,-0.201
0.451,0.8295,-0.2035
0.4535,0.8315,-0.1975
0.4585,0.838,-0.193
0.459,0.8435,-0.191
0.463,0.8475,-0.1925
0.472,0.8495,-0.194
0.479,0.851,-0.193
0.483,0.858,-0.193
0.4795,0.8635,-0.194
0.4795,0.861,-0.193
0.48,0.865,-0.187
0.485,0.8695,-0.184
0.4925,0.8715,-0.185
0.4965,0.8765,-0.1855
0.5005,0.8825,-0.182
0.5065,0.89,-0.18
0.5025,0.8905,-0.1845
0.5055,0.898,-0.1845
0.5175,0.9045,-0.1835
0.5175,0.9035,-0.178
0.516,0.903,-0.1765
0.5185,0.9025,-0.1825
0.5295,0.906,-0.1825
0.5335,0.912,-0.1845
0.532,0.9235,-0.1835
0.536,0.9245,-0.1825
0.5315,0.9235,-0.19
0.5325,0.9285,-0.1885
0.544,0.9345,-0.178
0.548,0.9435,-0.172
0.5435,0.9465,-0.166
0.555,0.9505,-0.168
0.5605,0.9505,-0.167
0.5535,0.95,-0.162
0.5595,0.9565,-0.167
0.563,0.9555,-0.1695
0.565,0.9535,-0.168
0.5675,0.9565,-0.1635
0.5725,0.965,-0.163
0.575,0.9695,-0.1655
0.5725,0.9725,-0.162
0.576,0.975,-0.161
0.576,0.974,-0.156
0.5755,0.972,-0.1505
0.584,0.9715,-0.158
0.5905,0.9805,-0.1555
0.59,0.9815,-0.151
0.5875,0.98,-0.149
0.581,0.9855,-0.139
0.582,0.982,-0.1375
0.5825,0.978,-0.148
0.5805,0.9785,-0.153
0.5825,0.9795,-0.148
0.5795,0.981,-0.147
0.573,0.9755,-0.1395
0.572,0.9755,-0.137
0.5735,0.9785,-0.1425
0.57,0.973,-0.1445
0.564,0.971,-0.14
0.561,0.972,-0.136
0.5645,0.9695,-0.135
0.564,0.9635,-0.1335
0.5575,0.959,-0.137
0.551,0.9585,-0.133
0.547,0.956,-0.1275
0.5425,0.9495,-0.1275
0.544,0.947,-0.128
0.5465,0.9495,-0.13
0.537,0.9455,-0.126
0.5335,0.9375,-0.1195
0.524,0.9315,-0.1195
0.5165,0.927,-0.1235
0.5155,0.921,-0.123
0.5075,0.9175,-0.12
0.5005,0.915,-0.124
0.496,0.9105,-0.128
0.4915,0.9055,-0.128
0.4885,0.897,-0.1285
0.493,0.892,-0.127
0.489,0.888,-0.126
0.4785,0.883,-0.127
0.474,0.8775,-0.13
0.4725,0.872,-0.1235
0.465,0.8635,-0.1195
0.467,0.862,-0.119
0.4645,0.8645,-0.117
0.4485,0.857,-0.1195
0.4435,0.847,-0.1205
0.43,0.8385,-0.1195
0.42,0.833,-0.119
0.415,0.83,-0.1215
0.411,0.82,-0.1205
0.4115,0.8125,-0.128
0.407,0.806,-0.1305
0.398,0.796,-0.131
0.3915,0.792,-0.1325
0.388,0.7815,-0.134
0.3765,0.77,-0.1425
0.3735,0.7715,-0.137
0.372,0.775,-0.1295
0.362,0.772,-0.1285
0.3615,0.7635,-0.1335
0.362,0.754,-0.1355
0.359,0.7485,-0.1345
0.3555,0.7395,-0.139
0.344,0.733,-0.14
0.34,0.731,-0.1355
0.341,0.7255,-0.132
0.3345,0.72,-0.131
0.3255,0.7155,-0.1405
0.319,0.7115,-0.1515
0.3195,0.698,-0.148
0.3135,0.6925,-0.137
0.304,0.695,-0.14
0.295,0.6885,-0.145
0.2905,0.679,-0.14
0.288,0.669,-0.1435
0.282,0.668,-0.1495
0.2795,0.665,-0.1525
0.285,0.6615,-0.1495
0.282,0.6565,-0.157
0.272,0.6525,-0.1655
0.2615,0.649,-0.1645
0.2625,0.6385,-0.1675
0.268,0.636,-0.163
0.262,0.6265,-0.153
0.2635,0.631,-0.157
0.2595,0.633,-0.1685
0.25,0.617,-0.161
0.2445,0.616,-0.162
0.2495,0.6155,-0.1715
0.254,0.611,-0.17
0.2445,0.607,-0.166
0.2435,0.603,-0.161
0.246,0.6005,-0.161
0.247,0.6,-0.1655
0.241,0.597,-0.1675
0.2305,0.597,-0.1675
0.2325,0.597,-0.165
0.2355,0.595,-0.157
0.231,0.591,-0.1545
0.2265,0.588,-0.158
0.2215,0.5895,-0.1635
0.2235,0.5825,-0.1665
0.2235,0.579,-0.167
0.2215,0.5775,-0.161
0.22,0.578,-0.1565
0.2185,0.5795,-0.169
0.2195,0.572,-0.176
0.2145,0.573,-0.168
0.212,0.572,-0.165
0.2085,0.5755,-0.16
0.2115,0.5785,-0.1545
0.2175,0.5695,-0.163
0.217,0.569,-0.16
0.2205,0.5735,-0.157
0.2215,0.571,-0.1645
0.2165,0.5745,-0.164
0.215,0.572,-0.1725
0.212,0.566,-0.1755
0.21,0.567,-0.1765
0.2125,0.559,-0.1805
0.2115,0.556,-0.1725
0.2115,0.5575,-0.171
0.213,0.5575,-0.176
0.212,0.5575,-0.1815
0.211,0.558,-0.177
0.2125,0.5605,-0.177
0.2175,0.5605,-0.182
0.221,0.561,-0.178
0.2185,0.565,-0.1765
0.2185,0.561,-0.179
0.2205,0.5625,-0.1795
0.2185,0.5695,-0.178
0.22,0.5635,-0.175
0.2215,0.564,-0.1725
0.2185,0.566,-0.1735
0.221,0.565,-0.173
0.218,0.5655,-0.1735
0.2165,0.566,-0.174
0.2215,0.567,-0.1715
0.22,0.5695,-0.1705
0.2215,0.572,-0.1695
0.2265,0.5695,-0.173
0.2305,0.5695,-0.1705
0.228,0.5725,-0.1685
0.227,0.5785,-0.1745
0.2295,0.579,-0.1765
0.225,0.5725,-0.1695
0.2225,0.5765,-0.1655
0.2275,0.5815,-0.1725
0.2325,0.579,-0.1735
0.2355,0.578,-0.1715
0.238,0.5765,-0.171
0.237,0.583,-0.17
0.2415,0.5855,-0.176
0.243,0.5835,-0.1735
0.238,0.587,-0.1685
0.24,0.585,-0.173
0.2445,0.587,-0.1735
0.2425,0.583,-0.1755
0.236,0.58,-0.1845
0.2305,0.578,-0.1935
0.229,0.579,-0.1895
0.233,0.581,-0.1875
0.231,0.5795,-0.1885
0.2345,0.581,-0.188
0.2405,0.581,-0.1905
0.237,0.591,-0.1855
0.2415,0.592,-0.1915
0.2475,0.5865,-0.2005
0.2485,0.5885,-0.2
0.2445,0.5895,-0.198
0.236,0.5865,-0.1905
0.236,0.5875,-0.1915
0.2425,0.588,-0.195
0.248,0.587,-0.1975
0.247,0.591,-0.2015
0.244,0.5845,-0.202
0.2445,0.586,-0.201
0.243,0.5915,-0.199
0.241,0.592,-0.203
0.245,0.595,-0.2025
0.244,0.589,-0.2015
0.2375,0.5865,-0.2015
0.235,0.588,-0.201
0.243,0.5905,-0.201
0.2475,0.599,-0.198
0.24,0.5975,-0.201
0.2405,0.588,-0.1985
0.243,0.5895,-0.2005
0.245,0.5935,-0.1985
0.2465,0.593,-0.1915
0.249,0.597,-0.1945
0.246,0.5945,-0.1945
0.24,0.592,-0.192
0.241,0.5925,-0.1935
0.235,0.591,-0.195
0.2385,0.5885,-0.197
0.243,0.584,-0.196
0.2455,0.5855,-0.1945
0.2475,0.587,-0.1915
0.2405,0.5835,-0.187
0.2415,0.5815,-0.1885
0.2425,0.5845,-0.1865
0.2375,0.5865,-0.193
0.2375,0.5895,-0.196
0.237,0.5885,-0.198
0.2365,0.5835,-0.1995
0.2365,0.5835,-0.1945
0.237,0.58,-0.2025
0.2405,0.588,-0.1985
0.236,0.59,-0.195
0.23,0.583,-0.196
0.2335,0.583,-0.195
0.2415,0.582,-0.196
0.2425,0.5815,-0.1895
0.2465,0.579,-0.1915
0.248,0.5805,-0.1945
0.245,0.581,-0.205
0.2435,0.5815,-0.2155
0.238,0.585,-0.2075
0.2325,0.58,-0.2075
0.227,0.581,-0.2055
0.2335,0.5855,-0.1985
0.239,0.5845,-0.1995
0.2415,0.5835,-0.2
0.24,0.577,-0.2035
0.2315,0.5825,-0.204
0.228,0.586,-0.211
0.2295,0.577,-0.213
0.233,0.5795,-0.2115
0.2325,0.579,-0.22
0.23,0.581,-0.2145
0.227,0.5805,-0.209
0.2265,0.5785,-0.209
0.2265,0.5795,-0.208
0.227,0.5775,-0.207
0.2315,0.583,-0.204
0.2275,0.579,-0.2045
0.226,0.5785,-0.2065
0.2255,0.5805,-0.2085
0.224,0.5775,-0.2055
0.231,0.5745,-0.2055
0.234,0.5705,-0.216
0.234,0.5785,-0.2165
0.2275,0.5735,-0.214
0.2365,0.5785,-0.2145
0.2435,0.585,-0.208
0.2355,0.5755,-0.211
0.236,0.579,-0.218
0.229,0.5805,-0.213
0.224,0.578,-0.21
0.2235,0.577,-0.2095
0.2305,0.5765,-0.211
0.236,0.5745,-0.2115
0.231,0.5705,-0.2075
0.229,0.569,-0.2075
0.2275,0.5725,-0.207
0.227,0.5705,-0.212
0.228,0.5715,-0.214
0.233,0.573,-0.2105
0.2335,0.572,-0.2105
0.2305,0.5705,-0.212
0.233,0.5695,-0.2125
0.2395,0.577,-0.213
0.2435,0.5825,-0.214
0.239,0.5745,-0.2145
0.2345,0.5745,-0.2155
0.2415,0.583,-0.2205
0.254,0.5785,-0.224
0.253,0.584,-0.2195
0.244,0.584,-0.213
0.253,0.58,-0.2065
0.2605,0.5885,-0.209
0.2575,0.586,-0.204
0.26,0.5825,-0.203
0.2625,0.58,-0.195
0.263,0.5785,-0.1815
0.2565,0.583,-0.1755
0.2545,0.582,-0.159
0.267,0.5775,-0.15
0.269,0.5795,-0.1345
0.266,0.582,-0.1305
0.265,0.5865,-0.1305
0.26,0.586,-0.1345
0.2645,0.581,-0.148
0.2615,0.585,-0.153
0.258,0.5865,-0.156
0.259,0.5805,-0.153
0.259,0.5855,-0.1565
0.2645,0.5895,-0.162
0.265,0.5825,-0.162
0.2655,0.585,-0.1605
0.2685,0.59,-0.1645
0.273,0.59,-0.171
0.2735,0.593,-0.176
0.272,0.5965,-0.175
0.2765,0.5955,-0.1805
0.2775,0.598,-0.182
0.2805,0.603,-0.174
0.281,0.6085,-0.168
0.279,0.6135,-0.16
0.281,0.6135,-0.164
0.279,0.612,-0.1655
0.2775,0.6115,-0.1675
0.283,0.6155,-0.173
0.287,0.6175,-0.1665
0.287,0.6155,-0.158
0.293,0.617,-0.1535
0.293,0.621,-0.151
0.2975,0.6235,-0.1495
0.307,0.626,-0.1565
0.299,0.6295,-0.157
0.301,0.634,-0.154
0.3025,0.633,-0.152
0.3,0.637,-0.148
0.315,0.642,-0.1535
0.316,0.637,-0.1615
0.313,0.643,-0.1665
0.315,0.646,-0.1695
0.315,0.64,-0.1725
0.3135,0.6415,-0.1785
0.3085,0.6415,-0.1805
0.308,0.636,-0.1775
0.3065,0.6355,-0.181
0.3085,0.6365,-0.1855
0.3055,0.6295,-0.1825
0.303,0.629,-0.177
0.3005,0.6295,-0.18
0.2905,0.625,-0.186
0.288,0.6215,-0.181
0.29,0.6225,-0.1755
0.2935,0.625,-0.175
0.2895,0.6205,-0.175
0.2815,0.6195,-0.1815
0.275,0.6105,-0.1985
0.2675,0.605,-0.2055
0.255,0.5985,-0.2105
0.243,0.59,-0.226
0.2405,0.589,-0.2305
0.237,0.5785,-0.2305
0.225,0.579,-0.2285
0.2135,0.5755,-0.2305
0.207,0.5645,-0.2255
0.199,0.563,-0.219
0.198,0.564,-0.2305
0.1995,0.564,-0.232
0.1945,0.5615,-0.226
0.1955,0.5595,-0.2275
0.201,0.5585,-0.234
0.202,0.5555,-0.233
0.197,0.555,-0.232
0.1965,0.5535,-0.242
0.1935,0.5555,-0.2395
0.195,0.555,-0.235
0.1965,0.5485,-0.2365
0.1915,0.5495,-0.241
0.194,0.548,-0.2505
0.1885,0.546,-0.2505
0.1845,0.5485,-0.2495
0.1865,0.551,-0.243
0.1905,0.546,-0.25
0.1905,0.5455,-0.255
0.1875,0.554,-0.246
0.188,0.557,-0.2375
0.191,0.55,-0.24
0.194,0.547,-0.249
0.19,0.5545,-0.2445
0.188,0.5495,-0.245
0.1865,0.5435,-0.2445
0.1935,0.5455,-0.249
0.1925,0.548,-0.25
0.1865,0.5475,-0.244
0.1905,0.5415,-0.245
0.1905,0.5415,-0.2475
0.186,0.545,-0.246
0.179,0.545,-0.2505
0.182,0.5405,-0.259
0.185,0.541,-0.266
0.1845,0.543,-0.2705
0.19,0.537,-0.263
0.1905,0.5395,-0.259
0.186,0.545,-0.2585
0.1855,0.54,-0.2605
0.1825,0.54,-0.262
0.1825,0.544,-0.259
0.1845,0.5465,-0.2625
0.186,0.5435,-0.2585
0.189,0.545,-0.255
0.188,0.547,-0.2565
0.1905,0.545,-0.2555
0.191,0.544,-0.257
0.188,0.544,-0.261
0.1895,0.5465,-0.2615
0.194,0.5425,-0.259
0.1915,0.543,-0.2565
0.188,0.5445,-0.26
0.1875,0.543,-0.2655
0.1865,0.547,-0.268
0.185,0.548,-0.2695
0.1735,0.543,-0.264
0.1775,0.5425,-0.267
0.1885,0.544,-0.269
0.1885,0.5435,-0.264
0.188,0.5405,-0.262
0.188,0.5435,-0.259
0.188,0.5495,-0.2615
0.179,0.537,-0.2685
0.171,0.5285,-0.266
0.173,0.5365,-0.2655
0.1775,0.5435,-0.271
0.177,0.545,-0.2645
0.178,0.5415,-0.265
0.1805,0.54,-0.268
0.1815,0.5455,-0.27
0.176,0.5455,-0.2735
0.167,0.5445,-0.271
0.168,0.5455,-0.27
0.169,0.543,-0.2695
0.17,0.542,-0.27
0.169,0.54,-0.271
0.1635,0.5365,-0.273
0.1645,0.5375,-0.2795
0.165,0.5395,-0.2895
0.164,0.5375,-0.2925
0.164,0.5355,-0.285
0.161,0.5365,-0.2745
0.162,0.5405,-0.2705
0.165,0.543,-0.2745
0.17,0.542,-0.284
0.168,0.5395,-0.286
0.165,0.5405,-0.2885
0.1675,0.5405,-0.2915
0.157,0.539,-0.289
0.155,0.5405,-0.292
0.162,0.5445,-0.288
0.161,0.546,-0.2855
0.1605,0.544,-0.2855
0.162,0.548,-0.287
0.1755,0.5475,-0.289
0.18,0.548,-0.288
0.168,0.548,-0.2865
0.16,0.545,-0.2945
0.1565,0.5465,-0.294
0.159,0.5465,-0.29
0.1605,0.5475,-0.2945
0.1605,0.545,-0.29
0.165,0.545,-0.2905
0.166,0.5475,-0.293
0.1565,0.544,-0.296
0.1495,0.543,-0.291
0.154,0.541,-0.2915
0.1565,0.54,-0.298
0.151,0.541,-0.2965
0.1505,0.546,-0.293
0.1605,0.549,-0.2925
0.1655,0.543,-0.2985
0.1555,0.541,-0.295
0.151,0.546,-0.291
0.1605,0.553,-0.2895
0.162,0.548,-0.2915
0.1595,0.54,-0.298
0.1565,0.5435,-0.2975
0.158,0.5495,-0.302
0.159,0.546,-0.303
0.1535,0.5445,-0.2975
0.156,0.5445,-0.3025
0.149,0.5385,-0.3035
0.1455,0.539,-0.304
0.148,0.5395,-0.3055
0.153,0.539,-0.2975
0.1535,0.537,-0.2895
0.15,0.5345,-0.2915
0.145,0.5345,-0.2935
0.1415,0.533,-0.294
0.1485,0.5345,-0.2965
0.143,0.538,-0.3
0.1395,0.537,-0.299
0.1485,0.536,-0.2955
0.1545,0.538,-0.303
0.1505,0.5405,-0.299
0.145,0.5435,-0.2905
0.141,0.537,-0.2985
0.139,0.5415,-0.298
0.143,0.542,-0.2995
0.1475,0.5275,-0.3025
0.1505,0.537,-0.2965
0.148,0.5375,-0.3005
0.1455,0.531,-0.3015
0.1495,0.535,-0.3005
0.1435,0.534,-0.2995
0.1385,0.5355,-0.296
0.136,0.532,-0.297
0.1355,0.534,-0.2935
0.1415,0.5375,-0.2915
0.145,0.534,-0.29
0.148,0.534,-0.292
0.1485,0.5415,-0.297
0.1495,0.545,-0.2985
0.1485,0.54,-0.302
0.1455,0.541,-0.2925
0.1455,0.5395,-0.2875
0.147,0.5365,-0.2925
0.1455,0.5355,-0.2935
0.1395,0.5375,-0.2905
0.14,0.5385,-0.2965
0.1435,0.541,-0.298
0.142,0.539,-0.293
0.1475,0.541,-0.296
0.1555,0.5455,-0.2955
0.1575,0.543,-0.303
0.153,0.5505,-0.3065
0.157,0.552,-0.315
0.1705,0.5575,-0.3265
0.1825,0.5715,-0.329
0.1955,0.577,-0.339
0.211,0.581,-0.353
0.224,0.5945,-0.365
0.235,0.6105,-0.3775
0.2435,0.618,-0.3835
0.2625,0.635,-0.383
0.2945,0.66,-0.3875
0.311,0.684,-0.3845
0.3315,0.706,-0.378
0.3415,0.725,-0.373
0.339,0.742,-0.353
0.3455,0.763,-0.3335
0.3525,0.786,-0.3225
0.3605,0.8125,-0.299
0.3725,0.8555,-0.27
0.387,0.903,-0.234
0.4145,0.971,-0.1925
0.455,1.0555,-0.1575
0.484,1.121,-0.113
0.522,1.1805,-0.0755
0.569,1.2585,-0.033
0.613,1.3435,0.017
0.637,1.407,0.066
0.6585,1.476,0.1285
0.7,1.5425,0.181
0.7285,1.5955,0.2195
0.7525,1.653,0.254
0.769,1.68,0.2805
0.757,1.6735,0.3095
0.7295,1.6485,0.3555
0.6855,1.592,0.392
0.6565,1.536,0.42
0.6325,1.4695,0.4365
0.584,1.3765,0.4375
0.537,1.304,0.4415
0.4775,1.2115,0.4465
0.413,1.109,0.469
0.347,1.0055,0.4905
0.2725,0.89,0.506
0.179,0.777,0.5335
0.066,0.6355,0.5755
-0.046,0.4795,0.6085
-0.128,0.3585,0.637
-0.1765,0.282,0.659
-0.254,0.1775,0.663
-0.317,0.1065,0.675
-0.35,0.09,0.6735
-0.366,0.073,0.672
-0.36,0.0715,0.6785
-0.3565,0.0615,0.6665
-0.3525,0.0645,0.658
-0.337,0.067,0.5985
-0.329,0.056,0.5
-0.3345,0.0395,0.4055
-0.3325,0.0195,0.2795
-0.3365,0.0095,0.218
-0.3245,0.015,0.1865
-0.2975,0.037,0.132
-0.2685,0.0705,0.0775
-0.247,0.099,0.046
-0.233,0.117,0.038
-0.211,0.143,0.0155
-0.209,0.151,0.003
-0.208,0.1515,-0.019
-0.201,0.156,-0.038
-0.199,0.162,-0.053
-0.189,0.1795,-0.067
-0.1865,0.185,-0.0835
-0.185,0.1895,-0.1085
-0.181,0.1975,-0.1345
-0.1805,0.203,-0.161
-0.176,0.2205,-0.171
-0.1655,0.227,-0.1905
-0.151,0.2285,-0.1995
-0.1495,0.237,-0.1935
-0.155,0.228,-0.1935
-0.1575,0.2245,-0.186
-0.1535,0.2275,-0.19
-0.15,0.2275,-0.201
-0.1515,0.2245,-0.2055
-0.1545,0.2215,-0.2035
-0.1495,0.2365,-0.2115
-0.146,0.239,-0.2205
-0.153,0.2345,-0.2195
-0.163,0.2305,-0.2145
-0.169,0.227,-0.215
-0.165,0.2355,-0.2215
-0.1705,0.234,-0.2145
-0.176,0.228,-0.209
-0.182,0.2235,-0.206
-0.187,0.221,-0.2135
-0.188,0.222,-0.23
-0.1945,0.2175,-0.236
-0.196,0.2135,-0.2415
-0.1965,0.213,-0.2455
-0.2,0.2085,-0.2535
-0.2065,0.2035,-0.259
-0.2075,0.2025,-0.26
-0.208,0.2,-0.267
-0.205,0.1995,-0.276
-0.198,0.204,-0.2795
-0.192,0.213,-0.2865
-0.189,0.22,-0.299
-0.192,0.221,-0.3115
-0.1825,0.2325,-0.319
-0.169,0.2495,-0.3215
-0.158,0.2625,-0.3255
-0.1505,0.278,-0.3225
-0.146,0.29,-0.3125
-0.137,0.302,-0.3035
-0.136,0.3165,-0.2985
-0.126,0.3255,-0.29
-0.111,0.333,-0.284
-0.106,0.339,-0.2795
-0.098,0.3415,-0.268
-0.096,0.342,-0.257
-0.092,0.3475,-0.2455
-0.079,0.354,-0.2395
-0.0665,0.361,-0.237
-0.051,0.3725,-0.2315
-0.0425,0.3845,-0.236
-0.034,0.399,-0.2425
-0.0315,0.4025,-0.237
-0.0225,0.4095,-0.235
-0.0065,0.4155,-0.2435
0.0005,0.4255,-0.2505
0.0125,0.442,-0.2575
0.0235,0.4435,-0.2605
0.0395,0.4505,-0.261
0.052,0.4595,-0.265
0.0665,0.47,-0.265
0.079,0.4825,-0.2705
0.091,0.4995,-0.278
0.1065,0.515,-0.28
0.1135,0.52,-0.28
0.1265,0.5305,-0.279
0.1335,0.539,-0.278
0.1385,0.5485,-0.2755
0.1505,0.557,-0.2805
0.1555,0.5615,-0.2825
0.1555,0.5655,-0.282
0.1635,0.5665,-0.28
0.169,0.567,-0.2805
0.1725,0.569,-0.2825
0.1845,0.576,-0.2765
0.1905,0.5875,-0.2835
0.1905,0.5865,-0.2895
0.1985,0.5855,-0.295
0.2045,0.602,-0.3
0.204,0.6065,-0.298
0.2065,0.6115,-0.2965
0.202,0.6215,-0.29
0.203,0.62,-0.2835
0.209,0.62,-0.288
0.2155,0.6175,-0.296
0.221,0.62,-0.2945
0.2185,0.623,-0.288
0.226,0.6245,-0.289
0.2195,0.627,-0.3
0.2125,0.6235,-0.303
0.218,0.624,-0.2975
0.2225,0.628,-0.2985
0.224,0.6285,-0.2995
0.228,0.6305,-0.2955
0.2355,0.6355,-0.299
0.2315,0.635,-0.2995
0.239,0.634,-0.293
0.24,0.6375,-0.2955
0.238,0.6415,-0.2975
0.237,0.636,-0.297
0.222,0.6355,-0.302
0.2215,0.6405,-0.303
0.228,0.64,-0.3015
0.227,0.6495,-0.3025
0.2305,0.646,-0.3015
0.2395,0.6375,-0.2985
0.247,0.6425,-0.2915
0.246,0.648,-0.2905
0.239,0.646,-0.2915
0.24,0.644,-0.2935
0.237,0.6415,-0.2985
0.236,0.642,-0.3025
0.2325,0.649,-0.3025
0.2265,0.6475,-0.301
0.233,0.65,-0.302
0.2405,0.657,-0.298
0.243,0.6555,-0.2935
0.2425,0.654,-0.293
0.252,0.659,-0.2985
0.2505,0.663,-0.301
0.2435,0.6635,-0.3065
0.243,0.658,-0.3185
0.244,0.6555,-0.3185
0.2475,0.6585,-0.311
0.2475,0.661,-0.305
0.2475,0.6635,-0.3
0.253,0.6555,-0.3045
0.26,0.6635,-0.305
0.256,0.6705,-0.299
0.2545,0.666,-0.3005
0.256,0.6735,-0.301
0.2575,0.6785,-0.304
0.26,0.6795,-0.304
0.2595,0.6755,-0.3135
0.2625,0.676,-0.3175
0.2635,0.678,-0.3125
0.2635,0.679,-0.313
0.2615,0.6835,-0.3125
0.2675,0.687,-0.3155
0.278,0.683,-0.318
0.2785,0.6805,-0.322
0.2775,0.692,-0.3175
0.27,0.6955,-0.312
0.2715,0.69,-0.3155
0.281,0.6905,-0.3165
0.284,0.694,-0.3125
0.285,0.6885,-0.3115
0.286,0.6885,-0.311
0.293,0.6925,-0.3085
0.2995,0.6955,-0.3075
0.297,0.7,-0.3045
0.2905,0.7015,-0.302
0.291,0.707,-0.3025
0.299,0.712,-0.306
0.306,0.7125,-0.3115
0.31,0.7115,-0.3115
0.3095,0.7165,-0.3095
0.3175,0.7175,-0.312
0.322,0.7175,-0.3095
0.3165,0.7225,-0.3005
0.3185,0.7215,-0.2975
0.3275,0.7195,-0.3025
0.3305,0.721,-0.305
0.328,0.7285,-0.3165
0.3285,0.7285,-0.325
0.332,0.7345,-0.3165
0.3405,0.7445,-0.318
0.3435,0.741,-0.319
0.3395,0.74,-0.319
0.3445,0.745,-0.3195
0.3505,0.7485,-0.3195
0.3475,0.748,-0.321
0.3465,0.7505,-0.3155
0.3565,0.756,-0.316
0.3615,0.758,-0.3185
0.365,0.7535,-0.319
0.3665,0.757,-0.315
0.365,0.758,-0.313
0.3685,0.757,-0.315
0.366,0.7655,-0.3135
0.369,0.776,-0.3155
0.373,0.7815,-0.3155
0.3755,0.7805,-0.308
0.3805,0.786,-0.298
0.379,0.789,-0.298
0.381,0.791,-0.3035
0.376,0.792,-0.3085
0.3735,0.7985,-0.3075
0.3805,0.8065,-0.304
0.3915,0.801,-0.305
0.4035,0.803,-0.304
0.403,0.8105,-0.3055
0.402,0.8155,-0.31
0.406,0.8225,-0.3055
0.41,0.8205,-0.3045
0.414,0.82,-0.309
0.4145,0.826,-0.305
0.4185,0.8305,-0.3065
0.426,0.834,-0.3105
0.428,0.8385,-0.3075
0.429,0.8445,-0.308
0.433,0.852,-0.3055
0.438,0.8495,-0.3035
0.442,0.848,-0.306
0.4465,0.866,-0.308
0.4445,0.8695,-0.3025
0.4395,0.864,-0.3
0.452,0.8735,-0.3025
0.4655,0.8775,-0.296
0.4715,0.881,-0.3015
0.471,0.8815,-0.3055
0.4675,0.8885,-0.302
0.474,0.8945,-0.303
0.476,0.8905,-0.2975
0.4825,0.898,-0.294
0.496,0.9045,-0.297
0.4985,0.906,-0.2965
0.497,0.909,-0.2935
0.5,0.9155,-0.288
0.501,0.9225,-0.2735
0.5095,0.927,-0.2705
0.5165,0.9255,-0.278
0.5115,0.927,-0.279
0.51,0.9325,-0.2805
0.511,0.937,-0.2865
0.516,0.942,-0.287
0.52,0.9445,-0.283
0.5255,0.952,-0.2805
0.5285,0.9525,-0.2695
0.534,0.954,-0.261
0.5355,0.96,-0.263
0.5345,0.961,-0.27
0.5395,0.9665,-0.2745
0.5325,0.9635,-0.27
0.5295,0.959,-0.2655
0.5365,0.973,-0.2685
0.5375,0.978,-0.2655
0.5375,0.9745,-0.2625
0.542,0.977,-0.262
0.5455,0.978,-0.2625
0.5485,0.9825,-0.2625
0.5435,0.981,-0.255
0.534,0.979,-0.2555
0.5365,0.9815,-0.251
0.5485,0.9865,-0.245
0.551,0.987,-0.251
0.546,0.985,-0.249
0.544,0.988,-0.2535
0.542,0.9865,-0.256
0.54,0.987,-0.2585
0.5425,0.9855,-0.2565
0.5445,0.983,-0.247
0.5405,0.9855,-0.246
0.535,0.982,-0.241
0.531,0.978,-0.248
0.534,0.976,-0.247
0.5355,0.9675,-0.242
0.532,0.9665,-0.2385
0.521,0.967,-0.2315
0.518,0.9615,-0.2385
0.519,0.9585,-0.238
0.51,0.95,-0.2355
0.5065,0.9435,-0.24
0.5025,0.9435,-0.236
0.497,0.9395,-0.2385
0.495,0.9325,-0.242
0.489,0.93,-0.2395
0.487,0.9295,-0.2415
0.484,0.9295,-0.2375
0.4715,0.9255,-0.2405
0.4625,0.9235,-0.2415
0.4545,0.9185,-0.2375
0.4555,0.91,-0.239
0.456,0.9055,-0.238
0.443,0.8975,-0.238
0.4365,0.898,-0.239
0.432,0.8965,-0.2415
0.425,0.8825,-0.2425
0.4215,0.874,-0.246
0.4135,0.871,-0.2445
0.404,0.866,-0.2425
0.407,0.861,-0.244
0.4155,0.86,-0.243
0.4105,0.853,-0.2415
0.4025,0.8455,-0.2435
0.39,0.841,-0.2465
0.377,0.8375,-0.2505
0.3715,0.8275,-0.2475
0.366,0.8185,-0.2455
0.3595,0.815,-0.253
0.354,0.8115,-0.254
0.351,0.8095,-0.252
0.3455,0.7965,-0.2505
0.339,0.786,-0.2555
0.331,0.775,-0.259
0.3195,0.7635,-0.2525
0.3115,0.7605,-0.255
0.306,0.756,-0.258
0.3,0.7535,-0.257
0.294,0.746,-0.259
0.287,0.7425,-0.259
0.2815,0.736,-0.258
0.2785,0.7335,-0.262
0.278,0.7335,-0.2655
0.272,0.7195,-0.263
0.262,0.714,-0.264
0.2595,0.708,-0.271
0.2535,0.706,-0.2685
0.2435,0.7025,-0.263
0.2435,0.688,-0.2675
0.2415,0.685,-0.2705
0.2355,0.6805,-0.2685
0.2315,0.67,-0.2685
0.2275,0.666,-0.2745
0.224,0.6635,-0.2775
0.222,0.668,-0.279
0.221,0.666,-0.2835
0.2175,0.656,-0.294
0.216,0.652,-0.298
0.2135,0.649,-0.29
0.2085,0.6445,-0.2895
0.2025,0.6405,-0.29
0.198,0.637,-0.2895
0.196,0.6325,-0.2915
0.193,0.6285,-0.2935
0.1895,0.62,-0.2885
0.187,0.6215,-0.2855
0.1835,0.6175,-0.284
0.1835,0.6095,-0.286
0.18,0.604,-0.2865
0.1765,0.6,-0.281
0.181,0.609,-0.286
0.1765,0.606,-0.2875
0.172,0.602,-0.2905
0.1695,0.5965,-0.297
0.1625,0.595,-0.297
0.161,0.5965,-0.298
0.161,0.595,-0.2955
0.161,0.5945,-0.2905
0.159,0.5885,-0.2935
0.1605,0.5915,-0.288
0.1655,0.5905,-0.2865
0.1615,0.583,-0.29
0.155,0.582,-0.2895
0.1545,0.584,-0.29
0.162,0.583,-0.2855
0.166,0.578,-0.288
0.159,0.5775,-0.288
0.154,0.579,-0.2905
0.1525,0.579,-0.289
0.1595,0.5745,-0.2905
0.163,0.575,-0.2995
0.1565,0.5825,-0.294
0.148,0.5785,-0.288
0.145,0.5695,-0.2905
0.148,0.571,-0.2875
0.148,0.576,-0.2845
0.15,0.577,-0.2915
0.148,0.575,-0.2905
0.1505,0.5715,-0.2865
0.1595,0.5735,-0.2885
0.1585,0.58,-0.2875
0.1545,0.5775,-0.292
0.149,0.573,-0.297
0.146,0.572,-0.3
0.1475,0.573,-0.3
0.144,0.57,-0.3015
0.1445,0.5675,-0.3045
0.144,0.5705,-0.298
0.1435,0.5695,-0.2965
0.145,0.573,-0.2995
0.142,0.573,-0.2975
0.1435,0.5715,-0.2975
0.1465,0.575,-0.301
0.147,0.577,-0.3
0.141,0.575,-0.3
0.1365,0.5725,-0.3
0.1385,0.5755,-0.3005
0.145,0.581,-0.3025
0.149,0.5825,-0.2975
0.1455,0.5815,-0.2925
0.1475,0.5795,-0.292
0.1445,0.5785,-0.294
0.142,0.579,-0.294
0.1395,0.578,-0.2985
0.141,0.58,-0.3025
0.148,0.578,-0.3015
0.1465,0.5795,-0.297
0.1485,0.584,-0.2935
0.147,0.5835,-0.2975
0.1475,0.5875,-0.3005
0.149,0.5865,-0.306
0.141,0.5825,-0.308
0.145,0.587,-0.31
0.151,0.5905,-0.3145
0.1475,0.5845,-0.318
0.1495,0.5845,-0.322
0.151,0.584,-0.324
0.151,0.5825,-0.3205
0.1505,0.5855,-0.315
0.143,0.5835,-0.314
0.149,0.5835,-0.315
0.1575,0.586,-0.3155
0.158,0.59,-0.3165
0.1565,0.586,-0.3195
0.1555,0.5875,-0.317
0.1515,0.598,-0.317
0.1515,0.596,-0.318
0.1545,0.5945,-0.321
0.151,0.596,-0.3165
0.164,0.5915,-0.3105
0.1765,0.591,-0.3175
0.169,0.5915,-0.316
0.1615,0.591,-0.312
0.167,0.5955,-0.3165
0.172,0.5975,-0.3215
0.17,0.5955,-0.311
0.1675,0.596,-0.3115
0.1645,0.5945,-0.315
0.1615,0.5925,-0.3085
0.165,0.5965,-0.317
0.1695,0.595,-0.3155
0.168,0.588,-0.316
0.1685,0.587,-0.319
0.168,0.5895,-0.323
0.17,0.5925,-0.325
0.176,0.5935,-0.32
0.175,0.597,-0.3205
0.1675,0.598,-0.3165
0.1655,0.5955,-0.314
0.1705,0.6005,-0.318
0.175,0.603,-0.322
0.1695,0.603,-0.3225
0.1645,0.5975,-0.3285
0.1675,0.596,-0.33
0.163,0.6,-0.3295
0.159,0.5975,-0.3265
0.161,0.597,-0.3235
0.166,0.598,-0.328
0.163,0.595,-0.327
0.1625,0.592,-0.327
0.1645,0.598,-0.3245
0.1675,0.601,-0.3195
0.1695,0.6005,-0.315
0.159,0.598,-0.3125
0.1555,0.594,-0.3145
0.16,0.5925,-0.318
0.1555,0.592,-0.32
0.154,0.594,-0.3225
0.158,0.592,-0.325
0.161,0.59,-0.319
0.1605,0.584,-0.319
0.1605,0.5825,-0.3245
0.1625,0.5915,-0.322
0.161,0.596,-0.3215
0.162,0.591,-0.3215
0.1645,0.5885,-0.322
0.171,0.5965,-0.321
0.1715,0.5945,-0.3195
0.1705,0.5905,-0.316
0.1675,0.5905,-0.309
0.1585,0.5905,-0.3155
0.149,0.5955,-0.3265
0.148,0.5905,-0.3285
0.157,0.587,-0.3265
0.1605,0.5895,-0.325
0.156,0.593,-0.326
0.15,0.5935,-0.323
0.159,0.591,-0.323
0.157,0.5885,-0.3185
0.1485,0.5845,-0.312
0.156,0.585,-0.318
0.1545,0.5865,-0.324
0.149,0.585,-0.329
0.147,0.5835,-0.3325
0.1485,0.5835,-0.335
0.1565,0.5885,-0.3355
0.16,0.5905,-0.3265
0.1585,0.5835,-0.321
0.153,0.5835,-0.332
0.153,0.5835,-0.3315
0.1535,0.5805,-0.3265
0.1515,0.585,-0.327
0.1495,0.5855,-0.3275
0.1465,0.5865,-0.331
0.147,0.5845,-0.333
0.141,0.5805,-0.3315
0.1355,0.5745,-0.33
0.136,0.573,-0.335
0.1395,0.5745,-0.334
0.1435,0.574,-0.327
0.1425,0.5805,-0.323
0.139,0.5825,-0.3275
0.14,0.582,-0.3315
0.14,0.581,-0.3295
0.137,0.582,-0.3275
0.1385,0.58,-0.328
0.149,0.5765,-0.325
0.1505,0.5765,-0.32
0.133,0.5735,-0.323
0.126,0.5695,-0.323
0.129,0.5705,-0.3215
0.128,0.574,-0.3215
0.136,0.5715,-0.3205
0.14,0.571,-0.323
0.141,0.575,-0.324
0.1425,0.5785,-0.323
0.14,0.5805,-0.3235
0.1425,0.573,-0.3295
0.1465,0.583,-0.315
0.146,0.5885,-0.307
0.1455,0.5715,-0.323
0.14,0.574,-0.3295
0.1375,0.5795,-0.3325
0.1435,0.58,-0.3325
0.146,0.5805,-0.3295
0.1535,0.5765,-0.326
0.159,0.579,-0.329
0.1585,0.585,-0.328
0.1605,0.5825,-0.3285
0.165,0.5835,-0.326
0.1685,0.5875,-0.3205
0.164,0.5865,-0.323
0.163,0.5855,-0.322
0.1665,0.5885,-0.313
0.1705,0.59,-0.3
0.1695,0.589,-0.29
0.1665,0.591,-0.279
0.1685,0.5945,-0.267
0.1715,0.597,-0.2595
0.1735,0.592,-0.2585
0.1765,0.5895,-0.2595
0.177,0.592,-0.2625
0.174,0.5965,-0.266
0.1745,0.595,-0.265
0.1675,0.593,-0.263
0.173,0.594,-0.26
0.179,0.5945,-0.2615
0.173,0.6005,-0.2675
0.1745,0.6025,-0.277
0.176,0.61,-0.2815
0.173,0.611,-0.283
0.1725,0.609,-0.294
0.1765,0.611,-0.295
0.177,0.608,-0.295
0.184,0.6095,-0.3
0.185,0.611,-0.296
0.1855,0.6135,-0.294
0.194,0.615,-0.2975
0.1955,0.6205,-0.2975
0.1975,0.623,-0.2925
0.1965,0.6175,-0.2845
0.196,0.6225,-0.2825
0.2015,0.6305,-0.2915
0.2045,0.631,-0.286
0.2075,0.6315,-0.283
0.214,0.6335,-0.2855
0.222,0.64,-0.278
0.222,0.6425,-0.2695
0.2205,0.642,-0.269
0.229,0.6435,-0.2695
0.2305,0.6435,-0.2665
0.2345,0.647,-0.2655
0.2385,0.647,-0.2585
0.2375,0.65,-0.2635
0.237,0.65,-0.268
0.235,0.6445,-0.2785
0.2325,0.6485,-0.289
0.2315,0.649,-0.291
0.2335,0.6425,-0.2975
0.228,0.6375,-0.2965
0.2215,0.6385,-0.297
0.224,0.643,-0.2985
0.2275,0.6375,-0.2965
0.2235,0.6285,-0.2955
0.2275,0.628,-0.3
0.227,0.6285,-0.3075
0.2195,0.628,-0.3115
0.214,0.6295,-0.3085
0.2075,0.6245,-0.3025
0.203,0.6215,-0.3005
0.2035,0.6215,-0.305
0.2005,0.6165,-0.3125
0.189,0.6145,-0.3115
0.1845,0.6115,-0.3105
0.177,0.603,-0.3105
0.167,0.6,-0.316
0.154,0.5965,-0.3285
0.1485,0.594,-0.3325
0.148,0.5845,-0.332
0.137,0.572,-0.3325
0.131,0.5715,-0.328
0.1255,0.5715,-0.3215
0.122,0.5725,-0.3255
0.1215,0.57,-0.327
0.1165,0.564,-0.328
0.1155,0.5635,-0.331
0.1135,0.561,-0.328
0.112,0.5535,-0.3305
0.1195,0.556,-0.3335
0.117,0.5505,-0.339
0.112,0.547,-0.343
0.116,0.5545,-0.346
0.121,0.5475,-0.35
0.1195,0.5485,-0.3465
0.12,0.5485,-0.3465
0.121,0.5465,-0.354
0.115,0.554,-0.3505
0.1055,0.5535,-0.3405
0.1025,0.5545,-0.3405
0.1055,0.5595,-0.3425
0.111,0.5555,-0.346
0.113,0.5545,-0.3485
0.1125,0.5545,-0.346
0.1125,0.5545,-0.346
0.111,0.5545,-0.3455
0.11,0.5555,-0.3425
0.1055,0.556,-0.3425
0.1085,0.551,-0.3495
0.1075,0.552,-0.3515
0.1185,0.553,-0.3495
0.1245,0.557,-0.3485
0.106,0.554,-0.3505
0.108,0.552,-0.347
0.1115,0.5535,-0.341
0.1135,0.5485,-0.3455
0.114,0.546,-0.344
0.115,0.548,-0.3415
0.113,0.55,-0.3515
0.1025,0.542,-0.356
0.1015,0.542,-0.355
0.1015,0.545,-0.352
0.1015,0.545,-0.352
0.0985,0.5465,-0.357
0.1005,0.5435,-0.358
0.106,0.5425,-0.3565
0.104,0.542,-0.3605
0.1055,0.5425,-0.3645
0.102,0.5425,-0.3645
0.0965,0.542,-0.3675
0.0905,0.5395,-0.3625
0.082,0.545,-0.359
0.0895,0.5485,-0.365
0.093,0.5475,-0.361
0.091,0.5485,-0.3575
0.093,0.548,-0.3605
0.098,0.552,-0.3595
0.1,0.5445,-0.354
0.093,0.547,-0.3525
0.0985,0.551,-0.3605
0.099,0.5465,-0.364
0.0915,0.546,-0.3675
0.0875,0.545,-0.367
0.084,0.539,-0.364
0.081,0.5335,-0.3635
0.0835,0.5395,-0.362
0.097,0.538,-0.3665
0.1035,0.535,-0.364
0.095,0.535,-0.363
0.0885,0.5355,-0.3635
0.087,0.539,-0.3585
0.092,0.5395,-0.362
0.094,0.5395,-0.3685
0.091,0.5425,-0.3665
0.0865,0.542,-0.367
0.0835,0.5425,-0.372
0.09,0.5415,-0.37
0.089,0.5385,-0.37
0.0835,0.538,-0.373
0.083,0.5425,-0.369
0.0875,0.5445,-0.3705
0.0845,0.5395,-0.3775
0.0865,0.54,-0.3765
0.091,0.542,-0.374
0.088,0.5405,-0.373
0.0875,0.543,-0.3705
0.084,0.5445,-0.3665
0.084,0.538,-0.371
0.0865,0.537,-0.377
0.093,0.539,-0.3775
0.098,0.5395,-0.376
0.0895,0.5435,-0.374
0.0875,0.5405,-0.374
0.0925,0.542,-0.3735
0.086,0.5385,-0.376
0.087,0.5355,-0.377
0.091,0.5435,-0.377
0.088,0.5365,-0.3805
0.089,0.532,-0.3775
0.0895,0.5385,-0.3745
0.0845,0.5415,-0.3745
0.0865,0.5365,-0.372
0.0895,0.536,-0.3755
0.092,0.5415,-0.3795
0.091,0.54,-0.3775
0.0865,0.536,-0.376
0.0875,0.53,-0.3795
0.086,0.532,-0.3795
0.085,0.534,-0.373
0.0865,0.53,-0.373
0.0885,0.5335,-0.3735
0.085,0.533,-0.3645
0.085,0.537,-0.361
0.084,0.547,-0.3695
0.083,0.535,-0.3765
0.0815,0.5295,-0.377
0.0725,0.535,-0.3765
0.0775,0.5295,-0.381
0.0805,0.5355,-0.3805
0.08,0.536,-0.3755
0.0815,0.528,-0.379
0.074,0.5265,-0.3785
0.073,0.5265,-0.3685
0.076,0.5295,-0.367
0.083,0.53,-0.3745
0.0905,0.5285,-0.378
0.0905,0.531,-0.368
0.09,0.536,-0.3645
0.0875,0.5345,-0.367
0.0875,0.5315,-0.3675
0.0845,0.5355,-0.3735
0.079,0.536,-0.3745
0.0805,0.535,-0.379
0.085,0.5335,-0.378
0.0815,0.5255,-0.3755
0.08,0.5295,-0.375
0.081,0.529,-0.377
0.079,0.523,-0.3785
0.0785,0.5275,-0.3755
0.0805,0.5295,-0.377
0.081,0.5275,-0.377
0.0765,0.528,-0.3745
0.074,0.5285,-0.374
0.071,0.527,-0.375
0.0715,0.5285,-0.3675
0.0685,0.526,-0.3685
0.065,0.5245,-0.366
0.0715,0.5285,-0.363
0.073,0.529,-0.372
0.0725,0.5295,-0.3745
0.0725,0.529,-0.3745
0.0745,0.5265,-0.377
0.0745,0.5235,-0.379
0.0735,0.525,-0.3765
0.0675,0.525,-0.371
0.063,0.525,-0.3655
0.0715,0.532,-0.3655
0.0735,0.5255,-0.369
0.0735,0.5225,-0.371
0.0725,0.522,-0.372
0.078,0.519,-0.371
0.08,0.5235,-0.3655
0.074,0.524,-0.36
0.082,0.534,-0.364
0.09,0.5385,-0.372
0.089,0.536,-0.376
0.086,0.538,-0.3815
0.0955,0.542,-0.3905
0.1065,0.549,-0.3985
0.109,0.5575,-0.407
0.13,0.5635,-0.4195
0.1505,0.577,-0.4285
0.157,0.5905,-0.4315
0.1705,0.601,-0.4335
0.1875,0.6155,-0.437
0.209,0.632,-0.444
0.2335,0.6495,-0.4495
0.249,0.664,-0.444
0.264,0.6935,-0.436
0.276,0.71,-0.4375
0.278,0.723,-0.4285
0.2785,0.7475,-0.4055
0.2855,0.7705,-0.3885
0.294,0.8065,-0.366
0.3085,0.848,-0.3395
0.3325,0.8975,-0.3055
0.3645,0.97,-0.264
0.412,1.053,-0.229
0.448,1.1265,-0.1795
0.4765,1.189,-0.136
0.5225,1.2615,-0.0905
0.5655,1.3435,-0.035
0.5875,1.412,0.0215
0.616,1.477,0.08
0.654,1.54,0.118
0.6885,1.5995,0.1555
0.708,1.6475,0.1995
0.7175,1.6635,0.2275
0.7165,1.6605,0.2585
0.687,1.6365,0.304
0.6445,1.579,0.3435
0.6085,1.5185,0.3685
0.5685,1.4435,0.3805
0.525,1.3585,0.39
0.4835,1.284,0.391
0.4195,1.1875,0.409
0.3445,1.091,0.443
0.272,0.979,0.4555
0.196,0.8675,0.4705
0.0975,0.742,0.502
-0.0205,0.59,0.5405
-0.145,0.4435,0.571
-0.2305,0.329,0.597
-0.2875,0.253,0.6175
-0.369,0.1525,0.631
-0.416,0.1,0.64
-0.438,0.083,0.639
-0.452,0.065,0.6465
-0.452,0.06,0.648
-0.451,0.0555,0.63
-0.443,0.0665,0.6085
-0.433,0.053,0.52
-0.426,0.0365,0.4205
-0.4215,0.017,0.328
-0.406,-0.0015,0.2085
-0.397,0.001,0.155
-0.3895,0.009,0.119
-0.3725,0.03,0.064
-0.3455,0.064,0.0175
-0.321,0.0915,-0.0015
-0.311,0.108,-0.013
-0.2925,0.1325,-0.036
-0.2815,0.138,-0.0475
-0.2855,0.1335,-0.0655
-0.286,0.131,-0.084
-0.281,0.1435,-0.1025
-0.2755,0.1675,-0.1265
-0.2735,0.174,-0.147
-0.2695,0.1715,-0.172
-0.2665,0.176,-0.194
-0.263,0.19,-0.209
-0.254,0.202,-0.222
-0.246,0.2115,-0.237
-0.2375,0.214,-0.248
-0.2345,0.2135,-0.245
-0.237,0.2135,-0.246
-0.241,0.2115,-0.2465
-0.2415,0.2155,-0.2385
-0.2345,0.2105,-0.242
-0.2315,0.2085,-0.251
-0.2345,0.213,-0.2605
-0.236,0.213,-0.273
-0.2395,0.221,-0.2685
-0.2405,0.218,-0.2665
-0.243,0.2075,-0.2645
-0.241,0.2105,-0.255
-0.238,0.218,-0.2605
-0.247,0.2175,-0.255
-0.251,0.209,-0.2485
-0.2505,0.204,-0.256
-0.2525,0.2045,-0.264
-0.256,0.205,-0.273
-0.2595,0.1995,-0.278
-0.264,0.19,-0.287
-0.2685,0.183,-0.2985
-0.2765,0.1795,-0.3095
-0.282,0.18,-0.3105
-0.2785,0.182,-0.2995
-0.2775,0.1785,-0.3125
-0.273,0.178,-0.329
-0.2695,0.1895,-0.328
-0.2655,0.2035,-0.3335
-0.2695,0.2065,-0.3465
-0.262,0.209,-0.356
-0.24,0.224,-0.362
-0.232,0.235,-0.365
-0.223,0.2495,-0.3615
-0.219,0.2565,-0.362
-0.2205,0.259,-0.347
-0.2165,0.2765,-0.3355
-0.209,0.2895,-0.3305
-0.202,0.2975,-0.3155
-0.194,0.302,-0.314
-0.187,0.308,-0.308
-0.185,0.3105,-0.2965
-0.177,0.309,-0.2925
-0.1655,0.316,-0.288
-0.1615,0.327,-0.2775
-0.154,0.338,-0.2765
-0.1375,0.3475,-0.274
-0.122,0.3645,-0.2665
-0.112,0.3745,-0.266
-0.1025,0.3825,-0.2715
-0.0905,0.3955,-0.2765
-0.0795,0.4005,-0.283
-0.068,0.4085,-0.29
-0.055,0.419,-0.294
-0.0455,0.428,-0.3025
-0.0355,0.436,-0.3065
-0.0205,0.4475,-0.313
-0.011,0.4625,-0.316
-0.002,0.4735,-0.3185
0.017,0.485,-0.322
0.032,0.498,-0.3115
0.0465,0.5045,-0.3085
0.057,0.517,-0.316
0.0635,0.5295,-0.314
0.068,0.5265,-0.314
0.0735,0.5325,-0.3255
0.0805,0.5435,-0.327
0.08,0.5495,-0.3225
0.0865,0.551,-0.324
0.093,0.553,-0.3195
0.0945,0.559,-0.3175
0.1015,0.5675,-0.3195
0.105,0.5695,-0.3225
0.11,0.573,-0.3255
0.117,0.5855,-0.326
0.119,0.589,-0.329
0.128,0.5885,-0.3315
0.14,0.591,-0.3325
0.142,0.601,-0.332
0.1475,0.6005,-0.3315
0.156,0.599,-0.328
0.1545,0.6005,-0.328
0.151,0.594,-0.3345
0.148,0.6005,-0.335
0.1465,0.607,-0.332
0.1535,0.6015,-0.3315
0.1555,0.603,-0.332
0.154,0.6085,-0.331
0.1505,0.6065,-0.329
0.1535,0.613,-0.3245
0.164,0.6135,-0.327
0.1595,0.608,-0.3315
0.156,0.6065,-0.329
0.165,0.611,-0.332
0.1645,0.614,-0.334
0.1645,0.6115,-0.3375
0.1675,0.6175,-0.336
0.1595,0.6175,-0.3325
0.1575,0.6125,-0.3415
0.1665,0.614,-0.3445
0.178,0.622,-0.341
0.178,0.628,-0.3415
0.175,0.625,-0.346
0.176,0.6335,-0.342
0.174,0.6325,-0.338
0.176,0.621,-0.343
0.1755,0.624,-0.34
0.176,0.6255,-0.3395
0.1765,0.623,-0.339
0.1745,0.6255,-0.3345
0.1785,0.6325,-0.333
0.1865,0.6285,-0.329
0.1945,0.6295,-0.3265
0.191,0.6355,-0.329
0.188,0.634,-0.3295
0.189,0.633,-0.327
0.188,0.6265,-0.328
0.1855,0.6285,-0.3255
0.189,0.636,-0.326
0.1935,0.6365,-0.3275
0.189,0.634,-0.33
0.1905,0.638,-0.3355
0.19,0.64,-0.3375
0.19,0.634,-0.3365
0.192,0.638,-0.335
0.192,0.643,-0.337
0.194,0.6425,-0.338
0.1965,0.6445,-0.3345
0.2,0.6415,-0.329
0.205,0.6455,-0.3275
0.2075,0.6505,-0.3275
0.208,0.6495,-0.328
0.2075,0.653,-0.329
0.202,0.6505,-0.326
0.2035,0.654,-0.327
0.2065,0.656,-0.329
0.207,0.655,-0.3265
0.21,0.6595,-0.328
0.21,0.658,-0.326
0.2085,0.6595,-0.3285
0.211,0.66,-0.328
0.2135,0.6565,-0.3245
0.212,0.658,-0.3275
0.213,0.657,-0.3265
0.2165,0.659,-0.328
0.219,0.672,-0.3245
0.2215,0.6715,-0.326
0.2205,0.6695,-0.327
0.225,0.6795,-0.328
0.2265,0.678,-0.3315
0.222,0.672,-0.3285
0.225,0.6755,-0.326
0.2285,0.68,-0.322
0.234,0.682,-0.3185
0.2335,0.682,-0.3135
0.2285,0.6825,-0.314
0.233,0.684,-0.325
0.236,0.688,-0.3265
0.2395,0.69,-0.3215
0.2445,0.691,-0.32
0.244,0.694,-0.32
0.2445,0.697,-0.319
0.247,0.699,-0.319
0.249,0.6995,-0.321
0.2525,0.7,-0.32
0.255,0.703,-0.323
0.263,0.7065,-0.3245
0.267,0.7015,-0.324
0.273,0.7035,-0.3225
0.2725,0.7135,-0.3205
0.268,0.7165,-0.32
0.275,0.7185,-0.321
0.2815,0.7225,-0.328
0.28,0.721,-0.328
0.2785,0.726,-0.3275
0.2815,0.7375,-0.3235
0.289,0.737,-0.324
0.2905,0.7345,-0.3325
0.294,0.737,-0.328
0.3045,0.732,-0.322
0.304,0.7355,-0.3235
0.3065,0.752,-0.324
0.3085,0.753,-0.328
0.3085,0.7505,-0.324
0.3135,0.7565,-0.3135
0.317,0.762,-0.316
0.321,0.7635,-0.322
0.3255,0.766,-0.3225
0.329,0.766,-0.318
0.333,0.771,-0.3165
0.3345,0.7765,-0.3145
0.3425,0.7755,-0.316
0.3465,0.7855,-0.3175
0.3375,0.7895,-0.309
0.3405,0.7855,-0.3045
0.355,0.796,-0.3015
0.356,0.8045,-0.3055
0.357,0.8025,-0.313
0.367,0.8075,-0.3075
0.369,0.8105,-0.3025
0.365,0.809,-0.303
0.365,0.816,-0.301
0.3775,0.8235,-0.303
0.387,0.8215,-0.302
0.384,0.822,-0.301
0.3885,0.831,-0.3015
0.3925,0.8445,-0.2985
0.3935,0.8445,-0.3
0.404,0.8435,-0.2995
0.41,0.852,-0.296
0.411,0.852,-0.299
0.412,0.8545,-0.2985
0.4185,0.861,-0.2935
0.419,0.861,-0.2895
0.4155,0.8585,-0.2885
0.4215,0.8615,-0.2925
0.425,0.868,-0.29
0.432,0.87,-0.288
0.432,0.872,-0.287
0.4315,0.8805,-0.277
0.444,0.884,-0.2755
0.448,0.887,-0.2775
0.446,0.893,-0.281
0.443,0.897,-0.2825
0.442,0.9025,-0.2805
0.4435,0.9035,-0.281
0.4515,0.909,-0.2775
0.4555,0.9095,-0.2715
0.457,0.915,-0.2695
0.464,0.923,-0.2675
0.467,0.92,-0.2645
0.4685,0.921,-0.265
0.4665,0.9235,-0.2675
0.474,0.9285,-0.267
0.477,0.93,-0.2615
0.479,0.9315,-0.2615
0.485,0.933,-0.259
0.4805,0.9355,-0.2545
0.4775,0.9415,-0.256
0.481,0.934,-0.2525
0.4835,0.935,-0.246
0.4825,0.9405,-0.244
0.4835,0.9355,-0.245
0.484,0.942,-0.245
0.4805,0.943,-0.249
0.476,0.935,-0.249
0.4805,0.9375,-0.2485
0.4795,0.9395,-0.2475
0.4745,0.9435,-0.237
0.4765,0.9375,-0.241
0.474,0.9295,-0.2375
0.467,0.938,-0.2255
0.463,0.937,-0.2255
0.466,0.931,-0.231
0.4685,0.9305,-0.2415
0.458,0.922,-0.2435
0.4425,0.91,-0.2485
0.44,0.9045,-0.251
0.4445,0.906,-0.241
0.44,0.9035,-0.2395
0.43,0.8945,-0.2415
0.4275,0.894,-0.2415
0.422,0.8925,-0.244
0.4145,0.8905,-0.246
0.408,0.889,-0.248
0.404,0.883,-0.247
0.4045,0.885,-0.2455
0.398,0.8815,-0.241
0.3895,0.874,-0.239
0.3815,0.8655,-0.2435
0.378,0.864,-0.246
0.381,0.859,-0.245
0.379,0.849,-0.247
0.379,0.8475,-0.249
0.3795,0.845,-0.2435
0.3735,0.8385,-0.2455
0.363,0.8325,-0.2405
0.356,0.8285,-0.243
0.351,0.817,-0.245
0.34,0.81,-0.244
0.327,0.8075,-0.2495
0.3205,0.802,-0.2485
0.322,0.7955,-0.2545
0.313,0.7915,-0.2455
0.304,0.7815,-0.2395
0.2995,0.769,-0.243
0.2885,0.766,-0.243
0.281,0.757,-0.2465
0.286,0.7525,-0.2475
0.2865,0.7455,-0.2505
0.271,0.737,-0.256
0.2655,0.7345,-0.264
0.2665,0.7365,-0.2685
0.2585,0.729,-0.263
0.2525,0.7145,-0.2595
0.244,0.714,-0.263
0.246,0.7105,-0.266
0.2475,0.701,-0.2665
0.2365,0.696,-0.2675
0.2265,0.693,-0.267
0.215,0.689,-0.265
0.212,0.6865,-0.2665
0.214,0.675,-0.272
0.206,0.667,-0.2755
0.1975,0.6665,-0.2735
0.193,0.6585,-0.2715
0.1935,0.654,-0.2735
0.1855,0.649,-0.269
0.1775,0.6425,-0.2655
0.176,0.6395,-0.2705
0.1715,0.6365,-0.2715
0.169,0.629,-0.2805
0.161,0.6215,-0.285
0.1615,0.618,-0.2775
0.1535,0.61,-0.274
0.1455,0.606,-0.275
0.145,0.603,-0.2775
0.1435,0.5955,-0.274
0.1505,0.594,-0.2755
0.146,0.5905,-0.277
0.135,0.5885,-0.2705
0.13,0.5885,-0.2685
0.13,0.585,-0.271
0.1295,0.581,-0.27
0.13,0.5805,-0.273
0.125,0.5715,-0.276
0.1245,0.5705,-0.274
0.1265,0.5745,-0.271
0.1265,0.564,-0.272
0.1245,0.5605,-0.274
0.116,0.56,-0.274
0.118,0.556,-0.2775
0.114,0.5535,-0.275
0.112,0.5525,-0.2755
0.11,0.549,-0.279
0.1025,0.5485,-0.278
0.1065,0.5485,-0.273
0.1075,0.5425,-0.275
0.099,0.539,-0.2815
0.096,0.5365,-0.2795
0.1005,0.5375,-0.277
0.095,0.54,-0.2775
0.091,0.536,-0.282
0.0985,0.531,-0.278
0.1015,0.5315,-0.274
0.095,0.53,-0.278
0.087,0.529,-0.276
0.087,0.5285,-0.276
0.094,0.528,-0.2815
0.098,0.5335,-0.283
0.0925,0.5305,-0.2795
0.0835,0.524,-0.2805
0.082,0.5255,-0.2835
0.0885,0.5255,-0.282
0.09,0.5285,-0.2815
0.089,0.533,-0.2785
0.0925,0.525,-0.2815
0.0885,0.522,-0.288
0.0855,0.528,-0.2845
0.093,0.5245,-0.286
0.1035,0.5245,-0.2845
0.1025,0.5245,-0.278
0.102,0.526,-0.2755
0.101,0.5265,-0.276
0.0965,0.5265,-0.2795
0.0945,0.5245,-0.278
0.086,0.516,-0.2795
0.091,0.522,-0.284
0.094,0.524,-0.2805
0.0905,0.5185,-0.281
0.0965,0.5205,-0.2845
0.1015,0.5215,-0.284
0.104,0.519,-0.2895
0.0945,0.5165,-0.2915
0.0945,0.5225,-0.2845
0.0995,0.524,-0.284
0.1025,0.528,-0.292
0.105,0.538,-0.2935
0.094,0.529,-0.2895
0.086,0.5215,-0.2845
0.092,0.5245,-0.286
0.095,0.531,-0.2905
0.0895,0.5345,-0.2875
0.09,0.536,-0.2865
0.0875,0.534,-0.29
0.0915,0.526,-0.291
0.0995,0.5305,-0.2895
0.096,0.5315,-0.294
0.097,0.53,-0.2965
0.101,0.5285,-0.299
0.1075,0.5295,-0.3
0.1045,0.531,-0.299
0.095,0.5315,-0.301
0.0955,0.5325,-0.2965
0.0955,0.533,-0.289
0.106,0.5365,-0.286
0.1085,0.538,-0.291
0.101,0.541,-0.2965
0.102,0.543,-0.2985
0.104,0.542,-0.297
0.106,0.542,-0.2955
0.107,0.542,-0.302
0.1075,0.5445,-0.3035
0.1035,0.5515,-0.3035
0.1095,0.5485,-0.304
0.1175,0.546,-0.3005
0.112,0.5435,-0.301
0.1135,0.542,-0.2955
0.1165,0.546,-0.295
0.108,0.542,-0.2975
0.1,0.5425,-0.2995
0.1025,0.539,-0.3035
0.107,0.5385,-0.3025
0.1085,0.544,-0.306
0.1095,0.539,-0.305
0.11,0.5385,-0.301
0.112,0.5455,-0.3045
0.115,0.5485,-0.3075
0.1175,0.5475,-0.3095
0.1165,0.5425,-0.309
0.1145,0.5445,-0.311
0.112,0.55,-0.313
0.11,0.544,-0.311
0.115,0.542,-0.305
0.1175,0.547,-0.302
0.1155,0.5475,-0.299
0.1165,0.5445,-0.293
0.12,0.5435,-0.2925
0.121,0.547,-0.291
0.117,0.5495,-0.297
0.1075,0.5495,-0.304
0.103,0.5445,-0.304
0.1075,0.5465,-0.3085
0.112,0.5475,-0.3125
0.114,0.5445,-0.3065
0.115,0.546,-0.305
0.1165,0.545,-0.31
0.117,0.545,-0.307
0.112,0.545,-0.305
0.1055,0.543,-0.304
0.1,0.5385,-0.3035
0.102,0.5395,-0.309
0.104,0.5415,-0.311
0.105,0.5385,-0.309
0.1045,0.537,-0.3095
0.102,0.5345,-0.309
0.1045,0.537,-0.3095
0.1045,0.5375,-0.309
0.1,0.526,-0.303
0.103,0.5365,-0.2975
0.108,0.546,-0.295
0.1005,0.5375,-0.3015
0.096,0.5375,-0.304
0.0965,0.5315,-0.294
0.1025,0.5315,-0.288
0.1075,0.538,-0.287
0.102,0.5335,-0.2835
0.098,0.537,-0.287
0.1,0.536,-0.293
0.099,0.527,-0.297
0.097,0.5235,-0.2985
0.1015,0.526,-0.297
0.1035,0.5285,-0.2995
0.1095,0.529,-0.3015
0.108,0.527,-0.302
0.1005,0.525,-0.3055
0.101,0.5265,-0.3055
0.103,0.5275,-0.304
0.108,0.5255,-0.3035
0.1085,0.5195,-0.3045
0.103,0.5185,-0.3035
0.0985,0.5165,-0.297
0.0925,0.519,-0.3
0.096,0.525,-0.3045
0.101,0.523,-0.3025
0.101,0.525,-0.299
0.1065,0.527,-0.2975
0.106,0.523,-0.3015
0.1015,0.5205,-0.3045
0.1065,0.5235,-0.309
0.1005,0.5205,-0.31
0.095,0.5095,-0.31
0.101,0.5105,-0.315
0.099,0.518,-0.312
0.1,0.52,-0.3075
0.1105,0.5235,-0.3045
0.111,0.515,-0.301
0.1015,0.5125,-0.301
0.099,0.521,-0.3065
0.0965,0.5145,-0.309
0.092,0.5115,-0.3105
0.0865,0.5135,-0.3125
0.088,0.513,-0.3125
0.103,0.51,-0.314
0.102,0.505,-0.316
0.092,0.512,-0.316
0.0915,0.515,-0.316
0.09,0.512,-0.3145
0.0915,0.513,-0.31
0.091,0.514,-0.3065
0.091,0.507,-0.312
0.0905,0.5045,-0.318
0.0955,0.512,-0.3135
0.1,0.513,-0.3105
0.099,0.5085,-0.3135
0.1075,0.508,-0.306
0.1135,0.5135,-0.303
0.109,0.518,-0.302
0.0995,0.517,-0.2985
0.1,0.5145,-0.303
0.1035,0.513,-0.302
0.1015,0.5095,-0.307
0.0985,0.5065,-0.307
0.0965,0.5005,-0.3005
0.102,0.5045,-0.303
0.101,0.5055,-0.302
0.1,0.501,-0.297
0.1085,0.5105,-0.2975
0.1125,0.5135,-0.301
0.1155,0.513,-0.303
0.1165,0.515,-0.3025
0.119,0.517,-0.297
0.1205,0.523,-0.2955
0.119,0.5205,-0.294
0.1205,0.52,-0.2915
0.129,0.5235,-0.289
0.1365,0.522,-0.274
0.136,0.521,-0.2615
0.1325,0.524,-0.2595
0.1305,0.526,-0.2525
0.137,0.5245,-0.247
0.1375,0.5295,-0.243
0.1355,0.534,-0.235
0.1375,0.531,-0.235
0.138,0.529,-0.2395
0.139,0.535,-0.2395
0.142,0.534,-0.2385
0.1415,0.528,-0.243
0.1405,0.531,-0.245
0.144,0.533,-0.2475
0.15,0.5375,-0.2545
0.1505,0.5355,-0.258
0.145,0.537,-0.2635
0.1445,0.55,-0.2715
0.144,0.547,-0.268
0.1475,0.55,-0.2605
0.155,0.5575,-0.262
0.159,0.555,-0.267
0.1575,0.555,-0.281
0.156,0.558,-0.28
0.1635,0.563,-0.2695
0.168,0.5595,-0.271
0.1655,0.5605,-0.268
0.1665,0.5645,-0.2605
0.1695,0.566,-0.2615
0.174,0.57,-0.261
0.1815,0.568,-0.2545
0.18,0.57,-0.249
0.179,0.569,-0.246
0.188,0.571,-0.2445
0.1845,0.573,-0.2445
0.1815,0.572,-0.245
0.184,0.573,-0.241
0.1895,0.5725,-0.244
0.198,0.5805,-0.2455
0.198,0.5845,-0.243
0.195,0.585,-0.2475
0.1965,0.58,-0.258
0.1945,0.578,-0.264
0.1865,0.5765,-0.2635
0.1855,0.5705,-0.266
0.1885,0.5785,-0.2665
0.1935,0.5815,-0.2655
0.1925,0.575,-0.271
0.1845,0.571,-0.2725
0.176,0.566,-0.27
0.1735,0.5595,-0.273
0.18,0.5595,-0.273
0.1845,0.561,-0.2695
0.192,0.558,-0.262
0.1895,0.557,-0.27
0.177,0.5545,-0.281
0.1655,0.5485,-0.2745
0.1565,0.544,-0.272
0.152,0.5415,-0.275
0.1495,0.538,-0.282
0.1395,0.535,-0.287
0.119,0.52,-0.2875
0.106,0.5115,-0.2945
0.1035,0.514,-0.295
0.092,0.505,-0.287
0.082,0.5015,-0.29
0.082,0.501,-0.2935
0.0775,0.495,-0.29
0.0765,0.4925,-0.29
0.0755,0.4915,-0.292
0.073,0.4905,-0.297
0.071,0.491,-0.3
0.067,0.486,-0.299
0.0725,0.4815,-0.298
0.0745,0.4855,-0.293
0.0755,0.483,-0.2955
0.0695,0.484,-0.3025
0.062,0.4875,-0.309
0.0675,0.4795,-0.314
0.068,0.4785,-0.3095
0.0705,0.484,-0.3115
0.0735,0.4745,-0.308
0.0715,0.4745,-0.306
0.073,0.4825,-0.31
0.076,0.479,-0.3125
0.072,0.4825,-0.312
0.0705,0.4795,-0.3085
0.07,0.477,-0.311
0.071,0.4805,-0.3095
0.073,0.474,-0.318
0.068,0.4725,-0.3165
0.0715,0.477,-0.3075
0.073,0.4775,-0.307
0.072,0.4815,-0.305
0.0725,0.4795,-0.3095
0.072,0.4785,-0.309
0.074,0.485,-0.308
0.073,0.481,-0.311
0.0735,0.4765,-0.313
0.0745,0.475,-0.314
0.0805,0.4725,-0.3125
0.086,0.473,-0.3045
0.0835,0.4715,-0.3065
0.0815,0.471,-0.313
0.075,0.474,-0.3075
0.0635,0.468,-0.311
0.0575,0.4655,-0.315
0.0605,0.4705,-0.32
0.058,0.469,-0.324
0.057,0.4715,-0.3185
0.0625,0.4705,-0.3175
0.0645,0.469,-0.316
0.0695,0.4755,-0.314
0.065,0.4735,-0.316
0.0555,0.4675,-0.314
0.057,0.468,-0.3195
0.066,0.4695,-0.33
0.0645,0.471,-0.325
0.0625,0.4695,-0.321
0.0665,0.4655,-0.322
0.0625,0.4675,-0.3155
0.062,0.4745,-0.314
0.0665,0.4755,-0.3205
0.065,0.4705,-0.324
0.063,0.4705,-0.3235
0.0645,0.475,-0.3215
0.0685,0.472,-0.323
0.075,0.473,-0.3235
0.0735,0.4735,-0.3205
0.07,0.4745,-0.325
0.0665,0.4765,-0.3255
0.0705,0.473,-0.329
0.0785,0.4725,-0.3265
0.0775,0.4725,-0.3225
0.0725,0.4705,-0.332
0.0675,0.4705,-0.3295
0.067,0.4695,-0.3255
0.0645,0.467,-0.326
0.0605,0.466,-0.33
0.0675,0.47,-0.331
0.067,0.4705,-0.3305
0.0625,0.471,-0.333
0.056,0.4735,-0.3295
0.0535,0.469,-0.326
0.0555,0.473,-0.329
0.0525,0.4715,-0.3335
0.0515,0.468,-0.333
0.0515,0.4695,-0.3365
0.054,0.4625,-0.338
0.0495,0.4625,-0.332
0.0495,0.4645,-0.3355
0.053,0.465,-0.3385
0.054,0.4725,-0.332
0.0545,0.471,-0.3335
0.052,0.468,-0.3375
0.0525,0.4715,-0.3345
0.0515,0.472,-0.3285
0.051,0.469,-0.3305
0.053,0.466,-0.337
0.0535,0.4715,-0.339
0.0455,0.474,-0.334
0.047,0.4695,-0.3375
0.052,0.47,-0.3455
0.053,0.4705,-0.34
0.055,0.464,-0.335
0.053,0.4665,-0.3355
0.051,0.4655,-0.3405
0.05,0.4625,-0.3395
0.0525,0.4675,-0.336
0.054,0.466,-0.338
0.0525,0.465,-0.3415
0.046,0.4595,-0.3475
0.045,0.464,-0.3505
0.0425,0.469,-0.3385
0.039,0.4645,-0.3335
0.0395,0.4695,-0.341
0.0385,0.4785,-0.3425
0.0375,0.478,-0.3405
0.037,0.467,-0.341
0.0405,0.4645,-0.348
0.041,0.4735,-0.3475
0.042,0.4715,-0.3415
0.0395,0.463,-0.337
0.0355,0.4655,-0.3385
0.0375,0.464,-0.337
0.037,0.462,-0.3315
0.039,0.464,-0.3405
0.0455,0.4645,-0.346
0.046,0.462,-0.346
0.044,0.4595,-0.3485
0.043,0.461,-0.346
0.0405,0.462,-0.3465
0.0405,0.462,-0.349
0.0395,0.459,-0.3455
0.0375,0.4625,-0.346
0.036,0.4655,-0.3475
0.0365,0.462,-0.349
0.0385,0.4595,-0.35
0.0395,0.462,-0.3405
0.0355,0.4615,-0.338
0.032,0.46,-0.339
0.031,0.462,-0.338
0.027,0.464,-0.334
0.024,0.465,-0.332
0.027,0.4605,-0.335
0.0295,0.459,-0.335
0.028,0.4555,-0.3365
0.025,0.456,-0.3355
0.034,0.4685,-0.335
0.039,0.465,-0.3335
0.035,0.4555,-0.3355
0.0355,0.456,-0.332
0.0325,0.456,-0.328
0.037,0.4595,-0.335
0.0335,0.458,-0.337
0.027,0.45,-0.337
0.0335,0.4525,-0.3365
0.0365,0.4535,-0.3345
0.0365,0.449,-0.337
0.0335,0.454,-0.3425
0.033,0.4565,-0.341
0.032,0.452,-0.338
0.0315,0.4545,-0.3345
0.033,0.4565,-0.3355
0.0335,0.453,-0.336
0.0395,0.457,-0.3355
0.0415,0.4595,-0.339
0.0435,0.461,-0.345
0.042,0.4625,-0.3495
0.05,0.4635,-0.3565
0.0635,0.473,-0.366
0.064,0.478,-0.366
0.0765,0.4805,-0.3745
0.0915,0.486,-0.385
0.106,0.5035,-0.3995
0.1105,0.5145,-0.411
0.121,0.523,-0.4135
0.1445,0.537,-0.417
0.158,0.5525,-0.419
0.18,0.578,-0.4195
0.197,0.598,-0.416
0.2145,0.623,-0.4135
0.222,0.6375,-0.4045
0.228,0.6565,-0.3885
0.2405,0.682,-0.3815
0.2485,0.7015,-0.3665
0.2515,0.7405,-0.332
0.257,0.776,-0.3015
0.2785,0.8225,-0.2605
0.3155,0.898,-0.219
0.368,0.977,-0.183
0.402,1.0495,-0.137
0.428,1.1115,-0.0985
0.4685,1.1875,-0.054
0.5175,1.2745,-0.003
0.5525,1.3385,0.05
0.581,1.413,0.1075
0.6225,1.485,0.155
0.655,1.539,0.1955
0.6705,1.584,0.2325
0.6755,1.6035,0.258
0.669,1.601,0.2935
0.6395,1.569,0.339
0.5985,1.511,0.371
0.5665,1.455,0.4
0.5255,1.3745,0.415
0.482,1.288,0.414
0.4415,1.2095,0.4135
0.3735,1.1115,0.435
0.302,1.0135,0.4645
0.231,0.9065,0.475
0.153,0.7995,0.493
0.0615,0.677,0.5235
-0.0585,0.533,0.566
-0.1875,0.3735,0.6015
-0.2735,0.262,0.6335
-0.336,0.189,0.6525
-0.4175,0.0825,0.659
-0.4615,0.029,0.672
-0.4715,0.018,0.6645
-0.482,0.0025,0.673
-0.498,-0.0085,0.678
-0.496,-0.008,0.657
-0.4825,-0.005,0.6255
-0.476,-0.015,0.533
-0.4665,-0.0195,0.4425
-0.466,-0.042,0.3405
-0.46,-0.0645,0.224
-0.454,-0.0645,0.1775
-0.4405,-0.0645,0.139
-0.413,-0.0435,0.08
-0.384,-0.0045,0.036
-0.3575,0.0295,0.022
-0.3435,0.0465,0.002
-0.3295,0.0645,-0.0175
-0.3245,0.0775,-0.034
-0.331,0.069,-0.058
-0.322,0.0705,-0.0715
-0.3135,0.0795,-0.091
-0.3155,0.094,-0.1075
-0.3135,0.1015,-0.1255
-0.3085,0.11,-0.151
-0.3035,0.123,-0.1775
-0.3,0.1175,-0.1975
-0.3005,0.1245,-0.209
-0.296,0.1375,-0.217
-0.2835,0.144,-0.2205
-0.2845,0.1475,-0.2325
-0.288,0.1445,-0.2355
-0.286,0.1455,-0.2305
-0.2815,0.146,-0.2275
-0.283,0.143,-0.227
-0.29,0.144,-0.2275
-0.2895,0.1355,-0.2375
-0.2895,0.1365,-0.2495
-0.282,0.146,-0.253
-0.2765,0.138,-0.2535
-0.2815,0.132,-0.245
-0.288,0.133,-0.2435
-0.287,0.138,-0.2415
-0.2905,0.139,-0.233
-0.298,0.144,-0.227
-0.296,0.1465,-0.2325
-0.302,0.1405,-0.2515
-0.303,0.1355,-0.2655
-0.304,0.1325,-0.272
-0.311,0.1345,-0.279
-0.32,0.128,-0.282
-0.331,0.115,-0.289
-0.332,0.1105,-0.299
-0.334,0.11,-0.3
-0.333,0.112,-0.3005
-0.3265,0.1215,-0.3035
-0.318,0.122,-0.3115
-0.307,0.131,-0.32
-0.3035,0.1385,-0.3285
-0.3055,0.14,-0.339
-0.3,0.158,-0.3495
-0.2845,0.176,-0.3515
-0.273,0.1905,-0.344
-0.268,0.197,-0.343
-0.261,0.205,-0.3355
-0.2535,0.217,-0.3185
-0.2485,0.2195,-0.314
-0.2395,0.229,-0.3065
-0.2335,0.2355,-0.301
-0.225,0.2345,-0.294
-0.216,0.239,-0.279
-0.214,0.2435,-0.279
-0.215,0.246,-0.2775
-0.2135,0.254,-0.2765
-0.2015,0.266,-0.2725
-0.1825,0.2785,-0.268
-0.1705,0.2935,-0.268
-0.156,0.304,-0.263
-0.138,0.311,-0.2625
-0.131,0.318,-0.2625
-0.1235,0.3215,-0.2715
-0.1135,0.3295,-0.29
-0.101,0.341,-0.2975
-0.087,0.3495,-0.2945
-0.0755,0.359,-0.2945
-0.064,0.3745,-0.302
-0.0495,0.3855,-0.3045
-0.032,0.3915,-0.3035
-0.019,0.409,-0.3015
-0.0105,0.4235,-0.2985
-0.0005,0.4285,-0.3015
0.006,0.4355,-0.3055
0.0125,0.448,-0.308
0.024,0.455,-0.3095
0.04,0.4615,-0.315
0.0445,0.4695,-0.3145
0.045,0.473,-0.3115
0.055,0.477,-0.314
0.058,0.4805,-0.3165
0.0575,0.487,-0.3185
0.0595,0.488,-0.314
0.07,0.494,-0.316
0.0775,0.4975,-0.319
0.0785,0.4995,-0.3195
0.083,0.51,-0.322
0.0915,0.5125,-0.3245
0.101,0.5175,-0.331
0.1075,0.5165,-0.332
0.1035,0.521,-0.3325
0.0985,0.527,-0.33
0.1045,0.522,-0.327
0.109,0.5255,-0.323
0.1135,0.5275,-0.3205
0.1155,0.531,-0.327
0.111,0.53,-0.325
0.1135,0.531,-0.3165
0.113,0.537,-0.3165
0.1105,0.5345,-0.3245
0.1105,0.536,-0.322
0.103,0.539,-0.315
0.0985,0.5385,-0.3155
0.098,0.5345,-0.32
0.0995,0.5345,-0.327
0.1085,0.5365,-0.3235
0.1205,0.538,-0.3215
0.122,0.5405,-0.328
0.121,0.544,-0.3265
0.1225,0.5475,-0.325
0.1225,0.549,-0.3255
0.122,0.552,-0.319
0.123,0.55,-0.3205
0.1265,0.549,-0.324
0.1285,0.553,-0.3215
0.124,0.5535,-0.324
0.124,0.5545,-0.3225
0.129,0.5515,-0.3205
0.131,0.5515,-0.321
0.132,0.5555,-0.3215
0.126,0.5515,-0.3185
0.122,0.5545,-0.314
0.124,0.5595,-0.311
0.1325,0.5575,-0.3145
0.137,0.5565,-0.3185
0.136,0.5565,-0.322
0.1425,0.559,-0.3225
0.1445,0.5615,-0.322
0.142,0.568,-0.3235
0.143,0.5675,-0.3235
0.145,0.5635,-0.3255
0.1515,0.5625,-0.3255
0.1525,0.564,-0.321
0.1535,0.5725,-0.323
0.1575,0.569,-0.326
0.1615,0.5635,-0.3235
0.1595,0.5675,-0.321
0.1525,0.5685,-0.3235
0.1585,0.57,-0.323
0.165,0.5725,-0.3165
0.163,0.572,-0.323
0.159,0.574,-0.3185
0.159,0.579,-0.317
0.1575,0.582,-0.3195
0.1645,0.586,-0.3135
0.173,0.5875,-0.315
0.1735,0.5905,-0.3165
0.172,0.593,-0.315
0.1685,0.5875,-0.3135
0.1735,0.5855,-0.314
0.1745,0.586,-0.308
0.175,0.586,-0.3075
0.1785,0.5875,-0.315
0.1725,0.588,-0.316
0.175,0.5895,-0.32
0.184,0.5905,-0.323
0.1875,0.5925,-0.3195
0.191,0.5925,-0.3165
0.1835,0.5945,-0.3185
0.179,0.598,-0.324
0.1825,0.6,-0.321
0.1845,0.603,-0.3165
0.189,0.605,-0.316
0.1935,0.609,-0.321
0.192,0.6105,-0.323
0.1925,0.6135,-0.3125
0.1975,0.612,-0.3155
0.2,0.6075,-0.3195
0.205,0.616,-0.315
0.2095,0.621,-0.3135
0.2095,0.6245,-0.3085
0.211,0.625,-0.3075
0.215,0.625,-0.313
0.222,0.631,-0.3125
0.222,0.629,-0.313
0.221,0.633,-0.3115
0.2285,0.6385,-0.3115
0.2305,0.6415,-0.3155
0.2255,0.6435,-0.306
0.225,0.6435,-0.314
0.234,0.647,-0.3175
0.2425,0.6515,-0.3065
0.2475,0.651,-0.3145
0.25,0.653,-0.31
0.244,0.6585,-0.2975
0.241,0.6615,-0.3
0.25,0.6645,-0.305
0.2615,0.664,-0.3085
0.263,0.668,-0.3065
0.2515,0.669,-0.306
0.257,0.673,-0.3145
0.268,0.6765,-0.3085
0.273,0.6795,-0.3015
0.278,0.686,-0.3045
0.269,0.687,-0.2975
0.2715,0.688,-0.3065
0.271,0.6885,-0.3125
0.275,0.695,-0.305
0.287,0.7005,-0.2985
0.2855,0.7025,-0.295
0.289,0.704,-0.3035
0.3,0.713,-0.3
0.302,0.718,-0.296
0.303,0.713,-0.298
0.309,0.7175,-0.3015
0.31,0.7215,-0.301
0.3155,0.7245,-0.2925
0.3175,0.73,-0.2895
0.324,0.7335,-0.292
0.33,0.7385,-0.2975
0.3265,0.7425,-0.3005
0.3295,0.747,-0.2925
0.3305,0.749,-0.2915
0.333,0.751,-0.2925
0.3405,0.7545,-0.2915
0.34,0.7565,-0.2935
0.338,0.7625,-0.289
0.342,0.766,-0.292
0.3465,0.767,-0.2955
0.351,0.774,-0.2945
0.354,0.7785,-0.2905
0.3545,0.7865,-0.2825
0.362,0.7895,-0.281
0.3705,0.785,-0.284
0.373,0.792,-0.285
0.3755,0.7945,-0.2825
0.383,0.8025,-0.2805
0.385,0.81,-0.2745
0.3875,0.8055,-0.2705
0.3985,0.806,-0.2705
0.3945,0.807,-0.2655
0.3915,0.811,-0.269
0.395,0.814,-0.269
0.403,0.8195,-0.261
0.4075,0.8265,-0.259
0.408,0.834,-0.2585
0.4085,0.8385,-0.268
0.4015,0.839,-0.2735
0.4055,0.8435,-0.2685
0.4115,0.849,-0.2625
0.4135,0.848,-0.26
0.4145,0.8465,-0.2595
0.4185,0.851,-0.2505
0.419,0.851,-0.2505
0.421,0.8565,-0.2515
0.4275,0.8615,-0.2515
0.4295,0.8625,-0.253
0.427,0.865,-0.2465
0.432,0.869,-0.2425
0.4445,0.873,-0.242
0.441,0.872,-0.2405
0.4445,0.8735,-0.2375
0.4435,0.874,-0.235
0.434,0.874,-0.2365
0.431,0.8715,-0.2325
0.4285,0.8735,-0.2315
0.4275,0.8745,-0.2365
0.4255,0.8685,-0.2405
0.429,0.868,-0.2375
0.428,0.8715,-0.2325
0.4245,0.878,-0.2375
0.422,0.8625,-0.2355
0.4245,0.8625,-0.232
0.4265,0.8705,-0.23
0.4265,0.853,-0.225
0.425,0.8565,-0.2255
0.421,0.86,-0.229
0.4165,0.853,-0.23
0.4095,0.852,-0.22
0.4035,0.8465,-0.221
0.394,0.838,-0.2235
0.3865,0.835,-0.2165
0.3835,0.8295,-0.2205
0.381,0.8225,-0.229
0.3775,0.8225,-0.229
0.378,0.8225,-0.222
0.379,0.8205,-0.2255
0.375,0.815,-0.225
0.372,0.811,-0.226
0.367,0.8085,-0.2325
0.356,0.803,-0.2295
0.3465,0.7975,-0.2305
0.348,0.794,-0.225
0.3435,0.7865,-0.2315
0.334,0.7775,-0.242
0.3315,0.7805,-0.236
0.323,0.778,-0.231
0.305,0.766,-0.2285
0.2875,0.7615,-0.2285
0.2885,0.7575,-0.231
0.29,0.751,-0.2315
0.284,0.7415,-0.2285
0.278,0.7325,-0.226
0.276,0.7285,-0.225
0.2745,0.7225,-0.2315
0.267,0.71,-0.2285
0.2585,0.701,-0.2235
0.2535,0.692,-0.235
0.254,0.6905,-0.2365
0.252,0.6895,-0.2325
0.241,0.677,-0.232
0.2275,0.671,-0.2365
0.2265,0.671,-0.242
0.2215,0.6645,-0.241
0.216,0.6575,-0.243
0.2095,0.6525,-0.2455
0.206,0.6455,-0.25
0.208,0.6385,-0.2525
0.2005,0.6365,-0.2455
0.1915,0.634,-0.2395
0.1825,0.623,-0.2395
0.1815,0.616,-0.248
0.178,0.614,-0.251
0.1755,0.6085,-0.249
0.1745,0.603,-0.2485
0.164,0.5955,-0.2515
0.1565,0.5905,-0.2545
0.149,0.581,-0.248
0.1415,0.577,-0.25
0.144,0.575,-0.258
0.142,0.562,-0.264
0.1255,0.5525,-0.261
0.123,0.5495,-0.2595
0.123,0.5495,-0.2635
0.118,0.545,-0.264
0.1165,0.5465,-0.2575
0.112,0.54,-0.254
0.108,0.5245,-0.2655
0.1025,0.5245,-0.26
0.0995,0.528,-0.254
0.092,0.522,-0.2635
0.093,0.5195,-0.268
0.0965,0.517,-0.2595
0.0895,0.5105,-0.2545
0.087,0.5075,-0.2605
0.075,0.5045,-0.258
0.076,0.504,-0.257
0.081,0.4985,-0.264
0.075,0.497,-0.2655
0.07,0.495,-0.2645
0.067,0.4905,-0.264
0.068,0.487,-0.261
0.0625,0.4835,-0.2615
0.062,0.4845,-0.261
0.0635,0.4805,-0.259
0.0605,0.475,-0.259
0.049,0.4735,-0.2615
0.051,0.472,-0.258
0.0555,0.4715,-0.2475
0.0435,0.472,-0.2515
0.0425,0.4685,-0.2575
0.052,0.471,-0.26
0.0555,0.473,-0.2695
0.045,0.4695,-0.2735
0.044,0.4655,-0.2765
0.046,0.465,-0.2765
0.043,0.4635,-0.2695
0.0475,0.4625,-0.2625
0.0495,0.463,-0.262
0.0555,0.4605,-0.258
0.0555,0.461,-0.2585
0.045,0.4595,-0.271
0.0475,0.4585,-0.281
0.0565,0.463,-0.2695
0.052,0.465,-0.2545
0.048,0.465,-0.2595
0.0515,0.4575,-0.2685
0.048,0.4565,-0.2695
0.0495,0.461,-0.2665
0.056,0.46,-0.277
0.052,0.4595,-0.274
0.052,0.456,-0.2725
0.0495,0.459,-0.2735
0.047,0.462,-0.266
0.0505,0.457,-0.2695
0.0445,0.4545,-0.269
0.042,0.4545,-0.2695
0.0545,0.4545,-0.267
0.0605,0.453,-0.2655
0.0555,0.45,-0.2655
0.06,0.451,-0.27
0.056,0.4555,-0.2635
0.05,0.455,-0.263
0.058,0.459,-0.265
0.066,0.4635,-0.258
0.071,0.4655,-0.2655
0.073,0.466,-0.272
0.0735,0.4665,-0.2745
0.0645,0.465,-0.277
0.0565,0.461,-0.272
0.066,0.4635,-0.2635
0.0785,0.4665,-0.271
0.082,0.465,-0.27
0.0785,0.464,-0.27
0.064,0.465,-0.2795
0.059,0.4655,-0.28
0.0675,0.466,-0.292
0.0785,0.4695,-0.288
0.086,0.4715,-0.2805
0.087,0.4755,-0.2785
0.082,0.4755,-0.275
0.076,0.4745,-0.2775
0.0795,0.4775,-0.278
0.0775,0.4745,-0.2795
0.0805,0.478,-0.276
0.083,0.483,-0.2775
0.086,0.483,-0.2795
0.091,0.4825,-0.2745
0.087,0.4785,-0.2765
0.0835,0.48,-0.2765
0.0855,0.4865,-0.2775
0.084,0.4865,-0.283
0.0855,0.4855,-0.2835
0.089,0.487,-0.28
0.0895,0.49,-0.2725
0.0955,0.488,-0.2715
0.093,0.488,-0.283
0.094,0.4895,-0.278
0.093,0.4865,-0.275
0.0875,0.4825,-0.2835
0.0915,0.484,-0.2865
0.101,0.49,-0.2845
0.101,0.4855,-0.285
0.0935,0.4895,-0.286
0.0915,0.4905,-0.2705
0.0955,0.4805,-0.2765
0.0985,0.4805,-0.289
0.099,0.4865,-0.284
0.103,0.485,-0.2825
0.1065,0.4805,-0.2775
0.1125,0.4835,-0.2735
0.1155,0.482,-0.274
0.1135,0.48,-0.281
0.115,0.4835,-0.2845
0.114,0.487,-0.287
0.1055,0.487,-0.284
0.107,0.484,-0.276
0.1115,0.491,-0.277
0.111,0.496,-0.2805
0.106,0.4945,-0.279
0.0905,0.4975,-0.276
0.087,0.498,-0.281
0.0915,0.489,-0.2825
0.091,0.4795,-0.278
0.086,0.4835,-0.278
0.0905,0.4795,-0.2795
0.0985,0.483,-0.273
0.0935,0.4895,-0.268
0.0885,0.479,-0.276
0.098,0.478,-0.2765
0.107,0.485,-0.2745
0.102,0.486,-0.2745
0.098,0.4835,-0.28
0.093,0.483,-0.28
0.093,0.482,-0.2805
0.0975,0.4855,-0.29
0.0945,0.487,-0.284
0.0955,0.481,-0.2795
0.0945,0.479,-0.281
0.094,0.4805,-0.2905
0.0985,0.479,-0.2945
0.1015,0.4805,-0.284
0.0975,0.481,-0.2835
0.088,0.4785,-0.281
0.0825,0.4785,-0.274
0.083,0.474,-0.2765
0.083,0.4705,-0.283
0.0835,0.4735,-0.2825
0.0815,0.474,-0.2785
0.085,0.474,-0.2755
0.0915,0.4795,-0.274
0.0915,0.4795,-0.2735
0.0845,0.477,-0.2805
0.0895,0.4785,-0.285
0.1025,0.4805,-0.282
0.0955,0.482,-0.278
0.089,0.4745,-0.281
0.084,0.4735,-0.2855
0.092,0.4795,-0.2855
0.1005,0.4825,-0.2845
0.0795,0.476,-0.279
0.0725,0.476,-0.272
0.0825,0.4805,-0.2725
0.0885,0.475,-0.2815
0.0845,0.473,-0.286
0.0735,0.471,-0.2765
0.0755,0.4705,-0.2685
0.0815,0.4685,-0.273
0.0815,0.4645,-0.277
0.0885,0.469,-0.28
0.092,0.469,-0.2835
0.089,0.4685,-0.285
0.0875,0.4695,-0.284
0.074,0.471,-0.2745
0.071,0.473,-0.2745
0.0775,0.468,-0.28
0.0715,0.469,-0.28
0.075,0.4695,-0.2825
0.0805,0.4675,-0.276
0.0845,0.462,-0.2745
0.0875,0.4615,-0.2785
0.083,0.462,-0.288
0.0745,0.4585,-0.298
0.071,0.461,-0.2875
0.077,0.4545,-0.284
0.083,0.462,-0.281
0.083,0.4685,-0.276
0.072,0.459,-0.282
0.0755,0.455,-0.2815
0.077,0.453,-0.2775
0.0725,0.453,-0.2765
0.0785,0.4515,-0.2765
0.081,0.452,-0.2705
0.0805,0.4515,-0.27
0.0785,0.455,-0.272
0.077,0.4545,-0.2705
0.0815,0.4595,-0.2715
0.082,0.4685,-0.268
0.089,0.461,-0.277
0.1025,0.458,-0.2825
0.1065,0.4595,-0.277
0.1095,0.461,-0.2735
0.111,0.467,-0.2675
0.113,0.4675,-0.2735
0.1125,0.4645,-0.279
0.105,0.461,-0.2765
0.11,0.464,-0.2755
0.1125,0.471,-0.2755
0.1135,0.4725,-0.2745
0.122,0.4745,-0.2675
0.124,0.4745,-0.2495
0.122,0.4755,-0.235
0.118,0.475,-0.23
0.115,0.4775,-0.2215
0.119,0.4775,-0.22
0.1305,0.4775,-0.217
0.139,0.483,-0.212
0.137,0.4865,-0.2205
0.128,0.489,-0.218
0.132,0.492,-0.218
0.136,0.4905,-0.218
0.132,0.497,-0.218
0.1415,0.502,-0.2315
0.143,0.495,-0.23
0.1415,0.501,-0.238
0.132,0.5005,-0.2415
0.1215,0.4955,-0.2405
0.1265,0.504,-0.251
0.1295,0.5035,-0.254
0.1395,0.498,-0.257
0.148,0.5055,-0.248
0.145,0.507,-0.2405
0.139,0.5075,-0.242
0.1395,0.509,-0.248
0.1485,0.5105,-0.2485
0.152,0.513,-0.2445
0.1485,0.5145,-0.233
0.148,0.5175,-0.229
0.149,0.5185,-0.235
0.153,0.522,-0.2365
0.1535,0.518,-0.235
0.153,0.5185,-0.2265
0.159,0.5265,-0.229
0.1615,0.5255,-0.23
0.1615,0.5265,-0.226
0.154,0.528,-0.2165
0.159,0.526,-0.211
0.1685,0.524,-0.2125
0.174,0.525,-0.2105
0.186,0.5325,-0.22
0.185,0.5355,-0.2345
0.1755,0.537,-0.2305
0.175,0.54,-0.228
0.1795,0.536,-0.2325
0.1765,0.5345,-0.2375
0.1705,0.5355,-0.2385
0.1695,0.535,-0.233
0.1715,0.5365,-0.235
0.173,0.5295,-0.2395
0.163,0.5225,-0.2455
0.154,0.5185,-0.25
0.1555,0.518,-0.2515
0.1565,0.52,-0.249
0.1545,0.515,-0.247
0.1515,0.513,-0.2385
0.1465,0.5055,-0.2385
0.1405,0.5025,-0.247
0.134,0.502,-0.246
0.13,0.492,-0.2445
0.123,0.4915,-0.2495
0.1115,0.4885,-0.2535
0.1085,0.4775,-0.257
0.096,0.473,-0.2665
0.0895,0.473,-0.27
0.0915,0.4695,-0.2685
0.084,0.462,-0.2685
0.086,0.4635,-0.2725
0.08,0.459,-0.2695
0.0705,0.45,-0.2715
0.0725,0.458,-0.2715
0.066,0.457,-0.2665
0.0555,0.451,-0.266
0.0495,0.4485,-0.262
0.051,0.446,-0.262
0.0555,0.4495,-0.2695
0.059,0.45,-0.2805
0.056,0.444,-0.28
0.048,0.4435,-0.278
0.0485,0.4475,-0.2765
0.0495,0.437,-0.277
0.0495,0.4325,-0.2775
0.0425,0.435,-0.2795
0.0405,0.44,-0.2875
0.044,0.4425,-0.274
0.0395,0.435,-0.2695
0.0435,0.434,-0.2815
0.041,0.4325,-0.2795
0.0435,0.4355,-0.275
0.0475,0.443,-0.273
0.039,0.4355,-0.28
0.046,0.4345,-0.2855
0.0545,0.438,-0.278
0.0535,0.438,-0.273
0.049,0.438,-0.276
0.0505,0.437,-0.2715
0.0535,0.4395,-0.2665
0.043,0.4365,-0.2795
0.033,0.4345,-0.283
0.0385,0.4345,-0.275
0.056,0.435,-0.2695
0.062,0.4375,-0.2725
0.054,0.436,-0.2755
0.058,0.4415,-0.274
0.061,0.442,-0.274
0.051,0.435,-0.283
0.0535,0.439,-0.2825
0.053,0.4375,-0.269
0.043,0.4335,-0.2705
0.047,0.4365,-0.2745
0.0475,0.4355,-0.2765
0.0515,0.4355,-0.2845
0.054,0.435,-0.2835
0.0475,0.4315,-0.278
0.049,0.4305,-0.276
0.0465,0.4315,-0.2755
0.0355,0.433,-0.2885
0.041,0.433,-0.2995
0.044,0.432,-0.2965
0.036,0.4305,-0.2935
0.034,0.4335,-0.2885
0.0395,0.4325,-0.2895
0.045,0.432,-0.285
0.0425,0.433,-0.2855
0.0425,0.427,-0.289
0.0435,0.426,-0.282
0.0435,0.4265,-0.2845
0.0495,0.4305,-0.284
0.05,0.431,-0.2865
0.0445,0.431,-0.2925
0.049,0.433,-0.2965
0.0435,0.432,-0.296
0.0385,0.43,-0.2895
0.0485,0.4295,-0.2845
0.051,0.4325,-0.2865
0.049,0.4255,-0.2885
0.0435,0.425,-0.2785
0.041,0.4275,-0.2825
0.0415,0.4225,-0.2895
0.0385,0.425,-0.29
0.034,0.426,-0.292
0.0305,0.421,-0.287
0.032,0.4205,-0.285
0.0325,0.4275,-0.2955
0.028,0.425,-0.297
0.0245,0.422,-0.2925
0.0325,0.425,-0.2975
0.042,0.424,-0.294
0.046,0.421,-0.2975
0.045,0.421,-0.306
0.0375,0.421,-0.3015
0.0305,0.421,-0.297
0.0235,0.419,-0.2895
0.0255,0.419,-0.2935
0.0265,0.428,-0.305
0.0215,0.4225,-0.3
0.026,0.42,-0.2935
0.0305,0.431,-0.2975
0.031,0.429,-0.3085
0.0265,0.4235,-0.307
0.0245,0.422,-0.2985
0.0315,0.4205,-0.2935
0.0325,0.4215,-0.2915
0.0295,0.4225,-0.2945
0.0235,0.4215,-0.3
0.018,0.425,-0.298
0.0305,0.422,-0.298
0.0355,0.4225,-0.2955
0.0325,0.425,-0.2885
0.027,0.4205,-0.2945
0.0215,0.4185,-0.303
0.026,0.42,-0.304
0.0255,0.4235,-0.307
0.0235,0.4265,-0.3105
0.0215,0.43,-0.3
0.0275,0.4315,-0.3
0.0305,0.431,-0.305
0.0285,0.44,-0.2965
0.026,0.433,-0.3005
0.016,0.4185,-0.303
0.017,0.426,-0.3
0.0255,0.43,-0.3055
0.0335,0.429,-0.2985
0.03,0.4285,-0.2835
0.0215,0.426,-0.286
0.024,0.424,-0.287
0.0195,0.4275,-0.2835
0.016,0.4255,-0.288
0.0215,0.418,-0.2915
0.0165,0.424,-0.292
0.007,0.423,-0.293
0.014,0.418,-0.2985
0.021,0.4165,-0.301
0.0225,0.4155,-0.303
0.0245,0.418,-0.2995
0.026,0.4205,-0.292
0.0215,0.4225,-0.293
0.0215,0.4175,-0.3005
0.0275,0.417,-0.302
0.022,0.4185,-0.303
0.0175,0.415,-0.3025
0.0125,0.4155,-0.289
0.0185,0.418,-0.2915
0.0265,0.4215,-0.2985
0.0245,0.4225,-0.291
0.0205,0.419,-0.2985
0.0175,0.4205,-0.3
0.0325,0.421,-0.295
0.029,0.4215,-0.3
0.0215,0.4195,-0.2995
0.0265,0.419,-0.2905
0.0185,0.423,-0.2965
0.016,0.4215,-0.3075
0.0165,0.42,-0.296
0.026,0.4185,-0.288
0.028,0.419,-0.2835
0.0215,0.4185,-0.287
0.025,0.419,-0.2905
0.0315,0.422,-0.286
0.038,0.4215,-0.2845
0.0375,0.4215,-0.287
0.0375,0.4215,-0.286
0.0335,0.4205,-0.282
0.032,0.4175,-0.289
0.0255,0.4145,-0.294
0.011,0.4165,-0.291
0.007,0.419,-0.2835
0.0125,0.417,-0.279
0.0165,0.422,-0.2815
0.014,0.4175,-0.2815
0.023,0.4125,-0.291
0.029,0.4215,-0.2945
0.0395,0.422,-0.301
0.0505,0.4295,-0.3165
0.0555,0.44,-0.3225
0.065,0.448,-0.3355
0.0735,0.4625,-0.3485
0.0945,0.4715,-0.354
0.111,0.4785,-0.3585
0.1285,0.4985,-0.36
0.1515,0.521,-0.3625
0.1605,0.5355,-0.3615
0.1735,0.5565,-0.3655
0.1905,0.5845,-0.369
0.2025,0.604,-0.355
0.21,0.618,-0.349
0.22,0.633,-0.341
0.234,0.6585,-0.3185
0.2375,0.687,-0.2965
0.2465,0.725,-0.2675
0.2645,0.772,-0.2305
0.2925,0.8215,-0.19
0.337,0.908,-0.1575
0.356,0.988,-0.1165
0.3735,1.0445,-0.07
0.425,1.114,-0.028
0.479,1.203,0.0205
0.5165,1.284,0.075
0.539,1.3425,0.1325
0.5675,1.4165,0.1815
0.607,1.482,0.2295
0.6375,1.54,0.277
0.651,1.5825,0.31
0.652,1.589,0.3365
0.6315,1.573,0.3785
0.596,1.528,0.4255
0.5635,1.4745,0.4575
0.5375,1.415,0.484
0.4885,1.3265,0.494
0.434,1.2375,0.481
0.3905,1.149,0.483
0.322,1.0425,0.5045
0.2495,0.932,0.5235
0.175,0.815,0.539
0.105,0.7075,0.552
0.0135,0.5845,0.5825
-0.113,0.4335,0.626
-0.226,0.292,0.669
-0.298,0.2025,0.6975
-0.359,0.113,0.693
-0.4235,0.016,0.7055
-0.4475,-0.0205,0.7175
-0.4545,-0.0345,0.713
-0.4595,-0.046,0.7205
-0.4515,-0.05,0.712
-0.448,-0.051,0.691
-0.4475,-0.0495,0.6465
-0.439,-0.057,0.5455
-0.4345,-0.073,0.458
-0.4305,-0.088,0.356
-0.4195,-0.099,0.2505
-0.408,-0.106,0.219
-0.392,-0.097,0.177
-0.373,-0.067,0.1345
-0.349,-0.0285,0.1025
-0.322,0.001,0.0665
-0.303,0.0255,0.0595
-0.29,0.0455,0.0445
-0.2895,0.048,0.022
-0.297,0.045,0.005
-0.2945,0.049,-0.013
-0.2905,0.062,-0.0305
-0.2875,0.075,-0.0445
-0.286,0.08,-0.07
-0.2905,0.089,-0.1055
-0.289,0.103,-0.121
-0.282,0.115,-0.13
-0.2725,0.125,-0.145
-0.259,0.134,-0.1525
-0.249,0.1325,-0.1645
-0.25,0.135,-0.1605
-0.269,0.1375,-0.1525
-0.263,0.1255,-0.1745
-0.252,0.1285,-0.1775
-0.259,0.1315,-0.172
-0.258,0.1215,-0.1765
-0.2575,0.1265,-0.174
-0.256,0.1255,-0.1815
-0.259,0.129,-0.189
-0.2575,0.136,-0.1945
-0.2615,0.1255,-0.2005
-0.2605,0.1325,-0.1985
-0.251,0.139,-0.199
-0.2625,0.1325,-0.1935
-0.274,0.1285,-0.192
-0.276,0.1235,-0.2
-0.269,0.1235,-0.201
-0.2605,0.1235,-0.205
-0.2735,0.1185,-0.2135
-0.279,0.1175,-0.226
-0.28,0.1145,-0.2385
-0.286,0.1065,-0.2425
-0.2845,0.104,-0.2465
-0.291,0.099,-0.2465
-0.2985,0.096,-0.256
-0.2995,0.105,-0.269
-0.293,0.1075,-0.2795
-0.287,0.1125,-0.282
-0.2815,0.123,-0.281
-0.275,0.1215,-0.3025
-0.2755,0.1265,-0.315
-0.271,0.139,-0.3165
-0.2595,0.155,-0.311
-0.248,0.17,-0.303
-0.241,0.179,-0.3
-0.241,0.184,-0.289
-0.2455,0.1955,-0.264
-0.2445,0.207,-0.25
-0.222,0.2055,-0.249
-0.1995,0.215,-0.2465
-0.195,0.2245,-0.2355
-0.195,0.222,-0.22
-0.198,0.2235,-0.2195
-0.2015,0.232,-0.2165
-0.1895,0.236,-0.2105
-0.174,0.2455,-0.2045
-0.164,0.266,-0.2025
-0.1515,0.2795,-0.2105
-0.1445,0.286,-0.208
-0.133,0.2935,-0.198
-0.1195,0.305,-0.1995
-0.112,0.319,-0.201
-0.0965,0.3215,-0.2085
-0.0795,0.326,-0.2155
-0.0675,0.3405,-0.2125
-0.06,0.3485,-0.2255
-0.0535,0.354,-0.2385
-0.037,0.365,-0.2415
-0.0255,0.3745,-0.2435
-0.023,0.385,-0.2415
-0.0115,0.399,-0.2405
-0.0005,0.404,-0.245
0.005,0.4105,-0.238
0.012,0.4205,-0.236
0.018,0.4305,-0.2465
0.0225,0.4375,-0.247
0.0315,0.442,-0.2515
0.041,0.445,-0.2585
0.0535,0.451,-0.2465
0.0555,0.459,-0.2455
0.0505,0.463,-0.249
0.064,0.4675,-0.2365
0.076,0.4725,-0.234
0.069,0.474,-0.246
0.0735,0.477,-0.256
0.088,0.4835,-0.252
0.09,0.4865,-0.255
0.0995,0.491,-0.254
0.1055,0.4905,-0.2475
0.0965,0.4925,-0.2515
0.094,0.497,-0.253
0.094,0.5,-0.2515
0.091,0.503,-0.2525
0.0925,0.503,-0.2495
0.108,0.508,-0.2475
0.115,0.5125,-0.2505
0.1095,0.512,-0.2455
0.1045,0.509,-0.2385
0.1065,0.5125,-0.2315
0.1105,0.514,-0.2385
0.1135,0.5125,-0.2425
0.114,0.5125,-0.2485
0.115,0.5115,-0.2605
0.122,0.52,-0.2545
0.12,0.5135,-0.2565
0.122,0.504,-0.2535
0.128,0.5075,-0.2465
0.126,0.512,-0.244
0.1235,0.5125,-0.2505
0.1275,0.514,-0.257
0.1305,0.522,-0.2525
0.1245,0.5245,-0.261
0.1225,0.527,-0.262
0.124,0.524,-0.253
0.127,0.5245,-0.253
0.128,0.5295,-0.253
0.1345,0.5315,-0.247
0.1375,0.534,-0.242
0.1295,0.532,-0.2395
0.1295,0.531,-0.2435
0.128,0.534,-0.247
0.131,0.5355,-0.2545
0.1315,0.533,-0.254
0.13,0.5335,-0.2515
0.1335,0.5325,-0.2575
0.1385,0.535,-0.2515
0.1335,0.5325,-0.255
0.127,0.532,-0.2515
0.1335,0.5405,-0.2465
0.1385,0.539,-0.247
0.1445,0.5455,-0.246
0.146,0.541,-0.2545
0.1495,0.5355,-0.2475
0.147,0.55,-0.2395
0.138,0.5475,-0.2395
0.141,0.548,-0.2375
0.143,0.555,-0.236
0.1435,0.558,-0.2335
0.1385,0.558,-0.2355
0.1395,0.553,-0.2435
0.152,0.5525,-0.244
0.1535,0.556,-0.24
0.1445,0.56,-0.2345
0.1485,0.5565,-0.2415
0.1565,0.5565,-0.2485
0.1575,0.559,-0.2385
0.1595,0.5685,-0.239
0.165,0.58,-0.237
0.182,0.5735,-0.244
0.1745,0.5645,-0.2465
0.1625,0.5695,-0.2335
0.1745,0.579,-0.2375
0.172,0.583,-0.2465
0.1705,0.588,-0.2455
0.1725,0.584,-0.2465
0.17,0.581,-0.2395
0.182,0.586,-0.2285
0.19,0.5855,-0.235
0.183,0.5885,-0.2365
0.1785,0.5865,-0.241
0.185,0.594,-0.2395
0.1885,0.6015,-0.2355
0.1815,0.6005,-0.235
0.185,0.6095,-0.233
0.1905,0.609,-0.2385
0.1945,0.6075,-0.2365
0.1995,0.607,-0.236
0.2005,0.6055,-0.236
0.2,0.612,-0.2305
0.2015,0.612,-0.231
0.207,0.6105,-0.237
0.207,0.613,-0.241
0.2075,0.6165,-0.2355
0.217,0.6145,-0.236
0.2145,0.616,-0.236
0.2155,0.6215,-0.222
0.226,0.6225,-0.226
0.232,0.6235,-0.241
0.226,0.624,-0.2405
0.2175,0.628,-0.2365
0.221,0.6285,-0.2315
0.2255,0.6295,-0.233
0.2395,0.6355,-0.235
0.2555,0.642,-0.237
0.2575,0.646,-0.2375
0.25,0.647,-0.232
0.243,0.65,-0.24
0.2525,0.6495,-0.2375
0.261,0.6575,-0.225
0.26,0.67,-0.233
0.266,0.667,-0.2365
0.2715,0.665,-0.235
0.2785,0.6705,-0.2385
0.2855,0.6765,-0.235
0.2895,0.679,-0.23
0.292,0.682,-0.225
0.287,0.6885,-0.229
0.287,0.6925,-0.2355
0.2845,0.6945,-0.2345
0.2845,0.697,-0.233
0.2935,0.701,-0.238
0.2945,0.704,-0.241
0.3015,0.709,-0.2315
0.309,0.7175,-0.2245
0.313,0.7215,-0.2275
0.3135,0.726,-0.2255
0.309,0.725,-0.22
0.3125,0.726,-0.222
0.315,0.73,-0.222
0.3195,0.7285,-0.22
0.325,0.7355,-0.2195
0.33,0.7365,-0.224
0.3355,0.739,-0.227
0.3435,0.751,-0.2245
0.347,0.7555,-0.224
0.347,0.76,-0.223
0.3565,0.7645,-0.226
0.3665,0.769,-0.2255
0.3655,0.774,-0.219
0.3625,0.7775,-0.2165
0.3685,0.781,-0.213
0.3705,0.7835,-0.213
0.3625,0.7855,-0.2175
0.3665,0.79,-0.2155
0.3785,0.7915,-0.2185
0.37,0.791,-0.208
0.3695,0.791,-0.198
0.377,0.796,-0.2085
0.3875,0.8005,-0.2085
0.4035,0.8085,-0.2025
0.402,0.8135,-0.196
0.3975,0.8095,-0.1925
0.397,0.818,-0.197
0.3955,0.826,-0.195
0.4035,0.8285,-0.1935
0.4055,0.8235,-0.1985
0.397,0.8205,-0.1915
0.4045,0.831,-0.184
0.4115,0.8355,-0.178
0.415,0.8385,-0.1775
0.4205,0.8395,-0.1845
0.418,0.84,-0.1835
0.42,0.8455,-0.1735
0.423,0.8465,-0.1695
0.43,0.849,-0.1745
0.432,0.8485,-0.173
0.422,0.8505,-0.1715
0.43,0.856,-0.177
0.4385,0.858,-0.185
0.4345,0.862,-0.1835
0.431,0.8645,-0.173
0.431,0.87,-0.167
0.4315,0.872,-0.1655
0.4265,0.8645,-0.168
0.419,0.8625,-0.173
0.4165,0.862,-0.162
0.424,0.861,-0.155
0.4225,0.862,-0.158
0.4195,0.8605,-0.1565
0.424,0.858,-0.1635
0.4185,0.8565,-0.164
0.415,0.85,-0.1645
0.418,0.8465,-0.1585
0.4145,0.844,-0.1565
0.4055,0.8415,-0.154
0.403,0.838,-0.147
0.4075,0.8375,-0.1535
0.402,0.8385,-0.1525
0.401,0.8355,-0.143
0.3945,0.836,-0.148
0.3825,0.832,-0.148
0.381,0.831,-0.1345
0.383,0.826,-0.1445
0.3775,0.8215,-0.1455
0.366,0.815,-0.1445
0.3635,0.8045,-0.157
0.355,0.7985,-0.1525
0.3535,0.794,-0.15
0.349,0.7865,-0.1585
0.335,0.774,-0.1605
0.334,0.774,-0.1495
0.332,0.768,-0.1515
0.3295,0.7595,-0.16
0.3235,0.758,-0.1585
0.3175,0.7515,-0.154
0.321,0.751,-0.1485
0.319,0.746,-0.1455
0.3075,0.7425,-0.1395
0.303,0.7405,-0.1415
0.3015,0.7345,-0.142
0.2895,0.7265,-0.151
0.2775,0.7215,-0.16
0.2775,0.723,-0.1505
0.278,0.707,-0.149
0.2655,0.696,-0.1425
0.254,0.6865,-0.146
0.256,0.6835,-0.145
0.2625,0.6845,-0.1425
0.261,0.675,-0.151
0.248,0.673,-0.1435
0.2445,0.6625,-0.1445
0.237,0.6585,-0.156
0.225,0.655,-0.1635
0.2255,0.6465,-0.1665
0.218,0.644,-0.1725
0.211,0.6305,-0.1795
0.2005,0.6265,-0.1765
0.197,0.6205,-0.175
0.199,0.611,-0.1705
0.188,0.612,-0.1625
0.1835,0.608,-0.1595
0.1825,0.5985,-0.1645
0.1765,0.592,-0.17
0.167,0.593,-0.1655
0.1585,0.586,-0.168
0.161,0.58,-0.1705
0.166,0.5795,-0.166
0.1595,0.572,-0.1735
0.152,0.5635,-0.181
0.149,0.5615,-0.175
0.1475,0.561,-0.174
0.15,0.5505,-0.177
0.1495,0.544,-0.178
0.143,0.541,-0.183
0.144,0.5375,-0.1855
0.1455,0.5305,-0.191
0.132,0.527,-0.182
0.122,0.5265,-0.175
0.1125,0.5215,-0.177
0.121,0.516,-0.1785
0.1285,0.517,-0.181
0.116,0.5125,-0.176
0.1095,0.5025,-0.181
0.098,0.498,-0.19
0.099,0.4885,-0.1925
0.097,0.4805,-0.1815
0.092,0.48,-0.176
0.093,0.4785,-0.1835
0.088,0.475,-0.1835
0.078,0.4755,-0.179
0.0805,0.477,-0.1835
0.095,0.4785,-0.201
0.0855,0.475,-0.2005
0.0795,0.471,-0.195
0.0785,0.4705,-0.2055
0.0775,0.4695,-0.194
0.0835,0.466,-0.1885
0.075,0.466,-0.1935
0.0735,0.47,-0.1915
0.069,0.46,-0.196
0.0605,0.4575,-0.192
0.059,0.4575,-0.194
0.061,0.4595,-0.1865
0.067,0.462,-0.192
0.0755,0.4565,-0.2
0.076,0.46,-0.1915
0.0675,0.4615,-0.1875
0.0745,0.4615,-0.187
0.0695,0.4575,-0.1915
0.063,0.4575,-0.187
0.074,0.459,-0.1925
0.0745,0.4595,-0.1955
0.072,0.462,-0.1935
0.064,0.4615,-0.199
0.0545,0.463,-0.196
0.046,0.4595,-0.1975
0.0505,0.4565,-0.203
0.056,0.4535,-0.202
0.0465,0.4505,-0.1975
0.056,0.4505,-0.1975
0.0555,0.4485,-0.198
0.0515,0.446,-0.1985
0.063,0.4445,-0.1975
0.0685,0.447,-0.1935
0.0665,0.449,-0.195
0.0625,0.446,-0.204
0.0635,0.4475,-0.21
0.062,0.4515,-0.2045
0.0635,0.451,-0.2045
0.065,0.4515,-0.2
0.0765,0.4525,-0.194
0.078,0.4505,-0.1985
0.074,0.4435,-0.1995
0.0705,0.448,-0.199
0.059,0.449,-0.1955
0.0615,0.441,-0.1885
0.0665,0.4435,-0.1875
0.072,0.449,-0.1995
0.079,0.455,-0.2045
0.08,0.456,-0.1985
0.077,0.4505,-0.201
0.078,0.457,-0.2005
0.0835,0.4655,-0.206
0.0815,0.463,-0.213
0.078,0.462,-0.2105
0.0825,0.464,-0.208
0.0915,0.4645,-0.208
0.0875,0.464,-0.209
0.083,0.4655,-0.211
0.0895,0.4675,-0.21
0.0935,0.472,-0.207
0.0895,0.4745,-0.2085
0.0885,0.4725,-0.2125
0.094,0.4715,-0.2125
0.0935,0.4765,-0.2115
0.08,0.4765,-0.215
0.073,0.469,-0.2125
0.0815,0.475,-0.2095
0.0865,0.4795,-0.21
0.079,0.4775,-0.2115
0.082,0.481,-0.212
0.098,0.481,-0.208
0.101,0.484,-0.2135
0.106,0.4905,-0.2185
0.1025,0.489,-0.2125
0.094,0.4905,-0.217
0.097,0.489,-0.223
0.097,0.4855,-0.22
0.1,0.4905,-0.2165
0.095,0.487,-0.2165
0.0885,0.485,-0.2215
0.087,0.4845,-0.229
0.091,0.481,-0.2235
0.091,0.485,-0.213
0.092,0.4785,-0.2205
0.098,0.478,-0.22
0.0965,0.484,-0.2085
0.1015,0.483,-0.202
0.0975,0.483,-0.197
0.0965,0.4815,-0.2085
0.0995,0.481,-0.2085
0.091,0.481,-0.2135
0.094,0.4805,-0.224
0.095,0.484,-0.212
0.0995,0.4835,-0.213
0.105,0.4865,-0.2235
0.087,0.492,-0.2205
0.092,0.485,-0.2095
0.108,0.4865,-0.215
0.1025,0.492,-0.2095
0.0995,0.491,-0.2045
0.101,0.49,-0.22
0.096,0.4835,-0.2335
0.084,0.4835,-0.2315
0.093,0.4855,-0.215
0.1015,0.4805,-0.219
0.0955,0.477,-0.227
0.098,0.4775,-0.2235
0.101,0.477,-0.225
0.0945,0.473,-0.2195
0.092,0.476,-0.216
0.094,0.483,-0.2225
0.0825,0.4825,-0.2205
0.086,0.479,-0.2155
0.101,0.4785,-0.219
0.1015,0.4815,-0.214
0.0945,0.4795,-0.2205
0.0945,0.478,-0.2275
0.0885,0.4755,-0.222
0.085,0.4735,-0.22
0.098,0.4765,-0.2135
0.098,0.473,-0.222
0.0915,0.476,-0.223
0.0875,0.477,-0.222
0.0895,0.4735,-0.225
0.0915,0.476,-0.224
0.09,0.4695,-0.224
0.088,0.4725,-0.2145
0.094,0.4795,-0.2145
0.102,0.4815,-0.218
0.0935,0.4805,-0.2275
0.093,0.4665,-0.231
0.0935,0.463,-0.2245
0.0875,0.467,-0.217
0.088,0.4695,-0.21
0.0885,0.4725,-0.2185
0.0815,0.47,-0.214
0.081,0.467,-0.209
0.0875,0.468,-0.2145
0.0905,0.4635,-0.2155
0.0905,0.4665,-0.218
0.088,0.477,-0.2195
0.0875,0.47,-0.218
0.08,0.4605,-0.213
0.084,0.469,-0.222
0.097,0.4755,-0.226
0.0915,0.4735,-0.215
0.0825,0.472,-0.215
0.0815,0.4665,-0.216
0.086,0.4695,-0.213
0.0915,0.4715,-0.22
0.091,0.4655,-0.219
0.0895,0.467,-0.2125
0.0955,0.474,-0.2115
0.103,0.4715,-0.204
0.1075,0.472,-0.218
0.1005,0.473,-0.2215
0.0985,0.47,-0.2145
0.1055,0.478,-0.2155
0.1065,0.4705,-0.2215
0.1035,0.462,-0.229
0.0915,0.467,-0.215
0.099,0.4695,-0.2285
0.1135,0.472,-0.232
0.108,0.4685,-0.2245
0.099,0.4675,-0.224
0.0995,0.469,-0.215
0.0995,0.473,-0.224
0.094,0.4795,-0.2215
0.104,0.476,-0.2185
0.1115,0.475,-0.217
0.1095,0.472,-0.2175
0.1065,0.4725,-0.2275
0.1055,0.4835,-0.208
0.1105,0.4755,-0.192
0.107,0.4735,-0.188
0.1105,0.478,-0.171
0.1175,0.476,-0.159
0.119,0.487,-0.1495
0.117,0.4845,-0.142
0.111,0.48,-0.1395
0.111,0.48,-0.1425
0.114,0.4755,-0.1475
0.1205,0.477,-0.1635
0.114,0.473,-0.168
0.1105,0.476,-0.1665
0.1175,0.48,-0.165
0.113,0.4775,-0.1545
0.1245,0.48,-0.161
0.1265,0.48,-0.1635
0.1205,0.4875,-0.1635
0.122,0.488,-0.1675
0.118,0.481,-0.1595
0.1235,0.485,-0.165
0.126,0.486,-0.172
0.1195,0.488,-0.1635
0.121,0.495,-0.166
0.1365,0.5065,-0.1615
0.1395,0.517,-0.158
0.1345,0.5135,-0.1725
0.135,0.515,-0.1705
0.1395,0.5205,-0.1695
0.147,0.5175,-0.1715
0.155,0.5195,-0.163
0.1545,0.518,-0.153
0.1495,0.516,-0.146
0.154,0.521,-0.145
0.155,0.5225,-0.1355
0.153,0.525,-0.137
0.1595,0.5275,-0.1465
0.1575,0.5275,-0.1475
0.156,0.5335,-0.1415
0.164,0.5415,-0.141
0.168,0.5415,-0.151
0.166,0.543,-0.1505
0.163,0.5485,-0.164
0.1585,0.547,-0.1775
0.161,0.544,-0.1785
0.164,0.5395,-0.184
0.155,0.535,-0.1865
0.159,0.5285,-0.187
0.1725,0.522,-0.1865
0.1715,0.5215,-0.1825
0.162,0.5165,-0.1755
0.1615,0.5145,-0.184
0.1605,0.521,-0.186
0.154,0.52,-0.1905
0.148,0.513,-0.1935
0.15,0.515,-0.184
0.1485,0.5125,-0.1825
0.1395,0.509,-0.1755
0.135,0.508,-0.1805
0.1255,0.504,-0.1875
0.114,0.4935,-0.1915
0.103,0.486,-0.2035
0.0985,0.487,-0.2125
0.101,0.4865,-0.221
0.1065,0.481,-0.2245
0.0975,0.47,-0.224
0.0845,0.466,-0.2225
0.08,0.458,-0.2225
0.0755,0.455,-0.2225
0.067,0.4505,-0.222
0.059,0.4455,-0.22
0.0615,0.4475,-0.224
0.0595,0.442,-0.226
0.058,0.4455,-0.224
0.0595,0.451,-0.2235
0.058,0.444,-0.234
0.0565,0.442,-0.2455
0.0605,0.4485,-0.239
0.0635,0.4465,-0.232
0.056,0.4425,-0.2275
0.051,0.4465,-0.224
0.0555,0.446,-0.229
0.062,0.443,-0.2335
0.0675,0.4455,-0.2305
0.0605,0.444,-0.238
0.059,0.4435,-0.2435
0.072,0.4435,-0.2455
0.0605,0.44,-0.2515
0.051,0.4435,-0.2445
0.0505,0.4445,-0.239
0.0565,0.4425,-0.235
0.0585,0.4395,-0.237
0.05,0.436,-0.238
0.054,0.4405,-0.232
0.052,0.437,-0.2405
0.047,0.4325,-0.245
0.0425,0.4355,-0.2435
0.042,0.431,-0.2445
0.0555,0.44,-0.2475
0.0585,0.447,-0.2405
0.058,0.442,-0.2365
0.06,0.444,-0.2425
0.0585,0.4375,-0.235
0.0565,0.4355,-0.2355
0.054,0.441,-0.245
0.0605,0.439,-0.238
0.059,0.4385,-0.2415
0.0615,0.4385,-0.2465
0.051,0.433,-0.2415
0.048,0.4335,-0.245
0.064,0.435,-0.2485
0.0655,0.4285,-0.253
0.0675,0.429,-0.251
0.0645,0.4315,-0.245
0.0645,0.435,-0.2425
0.0605,0.4375,-0.2395
0.06,0.4335,-0.242
0.0695,0.4325,-0.2485
0.078,0.441,-0.241
0.074,0.444,-0.2365
0.0565,0.4405,-0.2495
0.0585,0.436,-0.251
0.0545,0.432,-0.247
0.0505,0.436,-0.2515
0.058,0.436,-0.248
0.054,0.433,-0.2515
0.054,0.4325,-0.2645
0.054,0.4355,-0.262
0.058,0.439,-0.2525
0.0575,0.437,-0.2465
0.0545,0.44,-0.2495
0.06,0.4425,-0.249
0.058,0.4405,-0.2475
0.061,0.44,-0.2505
0.0625,0.4355,-0.249
0.0515,0.431,-0.247
0.047,0.426,-0.245
0.046,0.4245,-0.2455
0.0505,0.428,-0.2465
0.0555,0.427,-0.25
0.0505,0.43,-0.2495
0.0455,0.439,-0.2395
0.045,0.4375,-0.2445
0.0475,0.431,-0.245
0.048,0.4315,-0.247
0.0475,0.434,-0.257
0.046,0.433,-0.26
0.043,0.4315,-0.258
0.047,0.428,-0.254
0.05,0.432,-0.2605
0.053,0.433,-0.252
0.0535,0.4345,-0.2485
0.0505,0.4435,-0.246
0.053,0.438,-0.2465
0.0525,0.434,-0.254
0.0525,0.432,-0.244
0.0495,0.431,-0.2515
0.043,0.4335,-0.254
0.042,0.434,-0.2485
0.0535,0.435,-0.253
0.0495,0.4335,-0.255
0.0325,0.4355,-0.252
0.037,0.4405,-0.256
0.04,0.4355,-0.272
0.044,0.436,-0.277
0.0535,0.446,-0.267
0.0485,0.44,-0.261
0.044,0.438,-0.261
0.045,0.438,-0.259
0.0475,0.4315,-0.2565
0.05,0.4365,-0.2595
0.0455,0.436,-0.262
0.0485,0.432,-0.2605
0.047,0.433,-0.2625
0.0375,0.4345,-0.2605
0.037,0.4305,-0.265
0.0415,0.433,-0.268
0.0415,0.432,-0.2685
0.0445,0.429,-0.2685
0.0465,0.4335,-0.256
0.042,0.429,-0.255
0.0435,0.434,-0.26
0.047,0.434,-0.265
0.0485,0.431,-0.2705
0.0515,0.4335,-0.2685
0.0485,0.4315,-0.2645
0.0455,0.4365,-0.258
0.041,0.431,-0.258
0.0345,0.43,-0.256
0.042,0.4405,-0.258
0.0525,0.439,-0.2645
0.0515,0.433,-0.265
0.0485,0.436,-0.2595
0.0435,0.435,-0.2635
0.04,0.438,-0.2635
0.0445,0.4405,-0.2455
0.0475,0.4285,-0.26
0.0465,0.431,-0.267
0.044,0.432,-0.258
0.0415,0.427,-0.259
0.0375,0.428,-0.259
0.039,0.426,-0.268
0.0375,0.425,-0.265
0.038,0.43,-0.266
0.045,0.4385,-0.267
0.044,0.4375,-0.2745
0.0445,0.439,-0.2775
0.0495,0.4455,-0.2555
0.052,0.441,-0.258
0.0495,0.4355,-0.2655
0.047,0.4335,-0.2645
0.047,0.433,-0.264
0.048,0.433,-0.2625
0.0515,0.431,-0.2605
0.0565,0.43,-0.2545
0.0495,0.4305,-0.255
0.045,0.4295,-0.2525
0.054,0.428,-0.249
0.055,0.4315,-0.248
0.0465,0.434,-0.244
0.047,0.439,-0.2395
0.0525,0.444,-0.2355
0.0455,0.4355,-0.2405
0.039,0.428,-0.2395
0.0645,0.432,-0.23
0.0735,0.436,-0.2395
0.0585,0.432,-0.242
0.052,0.4275,-0.247
0.0495,0.4295,-0.2555
0.0595,0.437,-0.253
0.0585,0.437,-0.258
0.065,0.4305,-0.2645
0.0745,0.434,-0.2645
0.0685,0.4385,-0.264
0.065,0.434,-0.272
0.069,0.432,-0.274
0.071,0.4395,-0.28
0.077,0.452,-0.286
0.088,0.461,-0.289
0.096,0.4735,-0.31
0.107,0.4825,-0.331
0.119,0.49,-0.3385
0.1325,0.509,-0.345
0.15,0.5235,-0.346
0.17,0.5385,-0.34
0.1845,0.5615,-0.3435
0.2005,0.581,-0.35
0.215,0.6005,-0.348
0.218,0.6185,-0.338
0.2225,0.631,-0.3255
0.2345,0.66,-0.3055
0.2505,0.699,-0.286
0.2575,0.7215,-0.2645
0.266,0.746,-0.229
0.2805,0.793,-0.194
0.302,0.858,-0.15
0.344,0.942,-0.104
0.3835,1.0205,-0.0655
0.416,1.0815,-0.022
0.4515,1.15,0.0185
0.491,1.236,0.072
0.5175,1.3095,0.138
0.5415,1.3655,0.2
0.565,1.426,0.244
0.584,1.4835,0.282
0.6115,1.533,0.327
0.6245,1.571,0.36
0.623,1.575,0.3905
0.6005,1.5515,0.43
0.5645,1.513,0.471
0.537,1.453,0.4985
0.511,1.387,0.5115
0.4645,1.2955,0.5055
0.42,1.212,0.5025
0.371,1.1255,0.5045
0.3065,1.0135,0.507
0.25,0.9085,0.53
0.188,0.794,0.5545
0.1175,0.687,0.5645
0.018,0.556,0.599
-0.1005,0.395,0.6315
-0.2055,0.255,0.6595
-0.253,0.1725,0.6845
-0.305,0.091,0.686
-0.376,0.0025,0.7
-0.391,-0.0215,0.7015
-0.392,-0.0395,0.691
-0.4065,-0.0565,0.695
-0.4105,-0.051,0.6965
-0.396,-0.0545,0.6805
-0.388,-0.053,0.6505
-0.371,-0.0525,0.562
-0.3635,-0.0725,0.4745
-0.37,-0.091,0.3835
-0.3605,-0.0955,0.281
-0.358,-0.0975,0.2365
-0.3525,-0.0995,0.208
-0.3325,-0.0775,0.179
-0.308,-0.0305,0.135
-0.285,0.004,0.1045
-0.2705,0.023,0.0955
-0.254,0.0395,0.073
-0.2445,0.058,0.0625
-0.2405,0.0645,0.048
-0.2305,0.059,0.0245
