i,vx,vy
-0.363,0.004,0.048
-0.368,0.0045,0.0495
-0.366,0.006,0.049
-0.3595,0.0065,0.0525
-0.358,0.0045,0.051
-0.3605,0.003,0.0485
-0.3625,0.004,0.05
-0.3695,0.005,0.053
-0.3705,0.005,0.057
-0.3695,0.0065,0.0585
-0.3705,0.0055,0.0575
-0.368,0.007,0.0555
-0.362,0.0085,0.0545
-0.3585,0.008,0.052
-0.359,0.0085,0.0525
-0.355,0.0105,0.055
-0.3565,0.01,0.0545
-0.358,0.0075,0.0535
-0.3545,0.008,0.05
-0.355,0.006,0.048
-0.36,0.004,0.051
-0.361,0.0015,0.0475
-0.362,0.001,0.045
-0.365,0.0015,0.0455
-0.3655,0.0015,0.0435
-0.3655,0.0,0.0465
-0.359,-0.001,0.047
-0.3555,0.001,0.0475
-0.351,0.0035,0.048
-0.346,0.0065,0.048
-0.351,0.006,0.0515
-0.352,0.004,0.051
-0.3515,0.004,0.0505
-0.3525,0.008,0.052
-0.3545,0.0105,0.051
-0.3495,0.0115,0.0515
-0.349,0.011,0.055
-0.3545,0.01,0.055
-0.349,0.0115,0.054
-0.344,0.011,0.051
-0.3445,0.0105,0.0475
-0.344,0.01,0.05
-0.3435,0.01,0.05
-0.3485,0.0085,0.0515
-0.3495,0.007,0.053
-0.3475,0.008,0.052
-0.3435,0.0075,0.0535
-0.345,0.006,0.052
-0.354,0.005,0.058
-0.353,0.0055,0.0585
-0.351,0.007,0.056
-0.347,0.0095,0.0575
-0.3455,0.008,0.056
-0.351,0.006,0.0535
-0.3515,0.008,0.0525
-0.341,0.0095,0.058
-0.3315,0.01,0.056
-0.3355,0.0105,0.055
-0.339,0.0105,0.0565
-0.3405,0.0115,0.052
-0.3395,0.0125,0.051
-0.3395,0.013,0.051
-0.341,0.0115,0.051
-0.342,0.008,0.053
-0.343,0.0055,0.054
-0.344,0.004,0.055
-0.3405,0.0045,0.0565
-0.3385,0.004,0.056
-0.347,0.0015,0.0575
-0.345,0.0015,0.059
-0.34,0.0025,0.061
-0.3425,0.004,0.061
-0.342,0.0045,0.0565
-0.3425,0.0045,0.0575
-0.3445,0.0075,0.0575
-0.341,0.0075,0.057
-0.3385,0.0065,0.0575
-0.342,0.0065,0.0555
-0.338,0.006,0.056
-0.3355,0.004,0.054
-0.333,0.006,0.051
-0.3285,0.0105,0.048
-0.3245,0.0115,0.0455
-0.324,0.0105,0.0465
-0.3275,0.01,0.044
-0.326,0.0095,0.044
-0.324,0.0105,0.0445
-0.329,0.0105,0.043
-0.3365,0.0105,0.043
-0.3405,0.0105,0.046
-0.3385,0.009,0.0465
-0.3375,0.0115,0.044
-0.336,0.011,0.045
-0.334,0.011,0.0435
-0.3325,0.0135,0.043
-0.331,0.0125,0.0415
-0.3325,0.0135,0.041
-0.333,0.01,0.0435
-0.3325,0.008,0.043
-0.3385,0.0085,0.0435
-0.3415,0.008,0.0435
-0.3405,0.0075,0.0435
-0.337,0.006,0.0445
-0.3355,0.006,0.0455
-0.3375,0.0065,0.0465
-0.3405,0.005,0.0475
-0.341,0.006,0.047
-0.337,0.008,0.0465
-0.341,0.008,0.0465
-0.343,0.006,0.05
-0.3355,0.0055,0.0495
-0.3335,0.0065,0.0475
-0.3345,0.0065,0.047
-0.3335,0.0055,0.0445
-0.336,0.004,0.044
-0.3365,0.0045,0.044
-0.3355,0.007,0.0435
-0.3365,0.007,0.044
-0.3305,0.0065,0.0405
-0.3265,0.0075,0.04
-0.3285,0.0095,0.0415
-0.326,0.012,0.043
-0.323,0.0125,0.048
-0.319,0.0115,0.048
-0.317,0.0125,0.0475
-0.3245,0.01,0.049
-0.3265,0.0095,0.049
-0.324,0.011,0.0485
-0.33,0.01,0.0505
-0.335,0.0095,0.054
-0.333,0.008,0.0565
-0.3355,0.009,0.057
-0.338,0.0095,0.0535
-0.337,0.008,0.053
-0.338,0.0075,0.0545
-0.3355,0.0085,0.0535
-0.336,0.0085,0.053
-0.337,0.006,0.0535
-0.3335,0.006,0.0535
-0.3335,0.006,0.052
-0.332,0.005,0.0515
-0.331,0.0055,0.052
-0.33,0.0045,0.052
-0.327,0.0065,0.0535
-0.332,0.0075,0.053
-0.339,0.008,0.049
-0.3395,0.0075,0.0495
-0.337,0.0085,0.048
-0.3415,0.01,0.049
-0.344,0.0095,0.0515
-0.337,0.0115,0.0505
-0.333,0.009,0.0525
-0.329,0.01,0.0495
-0.3275,0.0095,0.0495
-0.3265,0.0095,0.0505
-0.3245,0.0135,0.05
-0.3305,0.013,0.0545
-0.331,0.013,0.0525
-0.3275,0.014,0.05
-0.3275,0.015,0.0485
-0.328,0.016,0.049
-0.3275,0.0175,0.0495
-0.329,0.016,0.0485
-0.331,0.0155,0.049
-0.3305,0.0145,0.0495
-0.335,0.0115,0.0475
-0.337,0.01,0.0475
-0.333,0.012,0.0475
-0.333,0.0125,0.049
-0.3335,0.0105,0.052
-0.334,0.0095,0.056
-0.3325,0.009,0.0555
-0.329,0.0105,0.0525
-0.3315,0.0105,0.054
-0.3365,0.009,0.0555
-0.336,0.0085,0.0555
-0.339,0.0085,0.0575
-0.3415,0.008,0.06
-0.3375,0.0085,0.059
-0.3375,0.0095,0.0575
-0.335,0.009,0.0565
-0.331,0.0105,0.0565
-0.332,0.013,0.0575
-0.3325,0.01,0.057
-0.334,0.0085,0.0555
-0.335,0.0085,0.055
-0.3315,0.007,0.057
-0.3315,0.0065,0.0585
-0.335,0.007,0.057
-0.336,0.008,0.0595
-0.3405,0.009,0.064
-0.338,0.01,0.063
-0.3305,0.0115,0.062
-0.3325,0.013,0.0605
-0.335,0.0145,0.06
-0.329,0.016,0.0605
-0.3295,0.0135,0.0635
-0.334,0.013,0.064
-0.332,0.013,0.061
-0.334,0.012,0.06
-0.333,0.011,0.057
-0.3325,0.0085,0.06
-0.335,0.0075,0.061
-0.3375,0.006,0.0605
-0.3375,0.007,0.064
-0.3365,0.008,0.0655
-0.3315,0.008,0.0665
-0.325,0.0075,0.0635
-0.328,0.0055,0.0675
-0.331,0.0065,0.0725
-0.3395,0.0055,0.075
-0.341,0.005,0.077
-0.336,0.007,0.075
-0.336,0.01,0.073
-0.3325,0.0125,0.0725
-0.3285,0.014,0.071
-0.3255,0.015,0.0675
-0.3255,0.0175,0.0665
-0.3225,0.0195,0.067
-0.3225,0.0205,0.065
-0.3215,0.021,0.0645
-0.3165,0.0215,0.0645
-0.3185,0.027,0.063
-0.3185,0.03,0.06
-0.3165,0.0305,0.059
-0.3135,0.0335,0.06
-0.303,0.0385,0.059
-0.2975,0.042,0.066
-0.3005,0.045,0.073
-0.2985,0.048,0.0755
-0.304,0.0475,0.0785
-0.305,0.051,0.0825
-0.3005,0.056,0.084
-0.2995,0.058,0.085
-0.2935,0.0615,0.091
-0.287,0.0655,0.0915
-0.285,0.0675,0.0925
-0.2845,0.067,0.0955
-0.282,0.0685,0.093
-0.2845,0.071,0.09
-0.2845,0.074,0.088
-0.2825,0.0775,0.0885
-0.285,0.078,0.089
-0.2825,0.081,0.0845
-0.2785,0.0875,0.08
-0.279,0.0915,0.0785
-0.2725,0.0965,0.0785
-0.261,0.1025,0.0775
-0.2595,0.1035,0.0785
-0.256,0.107,0.082
-0.2515,0.1085,0.0825
-0.252,0.111,0.0865
-0.2495,0.1165,0.087
-0.245,0.119,0.0855
-0.2415,0.1205,0.0885
-0.2415,0.1215,0.088
-0.2445,0.1215,0.0885
-0.248,0.1205,0.091
-0.245,0.117,0.088
-0.2445,0.114,0.0865
-0.243,0.1125,0.084
-0.2425,0.1085,0.079
-0.245,0.105,0.083
-0.242,0.1025,0.086
-0.2445,0.0995,0.0875
-0.2485,0.095,0.087
-0.2485,0.089,0.089
-0.2485,0.0875,0.092
-0.2585,0.085,0.09
-0.259,0.0805,0.091
-0.253,0.077,0.0915
-0.258,0.0765,0.0945
-0.256,0.0775,0.0965
-0.2575,0.0735,0.096
-0.257,0.071,0.0965
-0.25,0.074,0.0945
-0.2475,0.076,0.0925
-0.249,0.076,0.09
-0.253,0.072,0.081
-0.2565,0.068,0.0755
-0.2535,0.0665,0.0705
-0.251,0.063,0.0655
-0.255,0.06,0.0655
-0.262,0.057,0.063
-0.261,0.0565,0.066
-0.26,0.0585,0.066
-0.263,0.059,0.0605
-0.263,0.0555,0.0565
-0.2675,0.0525,0.0545
-0.2685,0.051,0.0535
-0.2695,0.045,0.048
-0.2775,0.043,0.051
-0.275,0.0455,0.055
-0.2655,0.0475,0.053
-0.2625,0.0485,0.055
-0.255,0.048,0.0525
-0.255,0.0485,0.0525
-0.26,0.0495,0.057
-0.256,0.0485,0.059
-0.2575,0.049,0.063
-0.259,0.052,0.07
-0.262,0.0525,0.076
-0.2725,0.0495,0.081
-0.2895,0.0405,0.084
-0.3025,0.0305,0.08
-0.3115,0.025,0.0745
-0.3145,0.0195,0.0675
-0.313,0.018,0.0625
-0.31,0.0195,0.059
-0.311,0.0175,0.055
-0.32,0.011,0.057
-0.326,0.0065,0.054
-0.3355,0.004,0.0555
-0.34,0.0,0.0575
-0.3415,-0.002,0.0555
-0.339,-0.0045,0.056
-0.3395,-0.005,0.052
-0.3395,-0.009,0.0495
-0.332,-0.0095,0.047
-0.335,-0.009,0.0445
-0.3265,-0.0095,0.0455
-0.324,-0.008,0.046
-0.338,-0.01,0.044
-0.34,-0.0115,0.039
-0.334,-0.015,0.038
-0.3365,-0.0145,0.0375
-0.3315,-0.0135,0.037
-0.3285,-0.014,0.0385
-0.336,-0.011,0.038
-0.335,-0.01,0.0425
-0.334,-0.009,0.045
-0.335,-0.0085,0.0445
-0.337,-0.0095,0.046
-0.331,-0.0095,0.046
-0.3315,-0.008,0.0455
-0.3365,-0.0095,0.045
-0.3335,-0.011,0.0445
-0.334,-0.011,0.0445
-0.3335,-0.0125,0.043
-0.333,-0.012,0.0405
-0.3305,-0.0125,0.039
-0.328,-0.0145,0.04
-0.333,-0.0165,0.04
-0.3375,-0.0185,0.041
-0.341,-0.017,0.0435
-0.345,-0.015,0.046
-0.3435,-0.0145,0.046
-0.3455,-0.0155,0.045
-0.3455,-0.0155,0.046
-0.34,-0.013,0.047
-0.3425,-0.014,0.0485
-0.349,-0.0145,0.0485
-0.3545,-0.016,0.0505
-0.3495,-0.016,0.0505
-0.3425,-0.0165,0.049
-0.3385,-0.0175,0.0495
-0.343,-0.0185,0.0485
-0.348,-0.0205,0.0505
-0.345,-0.0195,0.0485
-0.3495,-0.02,0.0445
-0.351,-0.0215,0.0445
-0.3515,-0.023,0.044
-0.355,-0.0235,0.045
-0.3525,-0.0225,0.044
-0.353,-0.021,0.0425
-0.358,-0.0215,0.0415
-0.358,-0.021,0.044
-0.3545,-0.0205,0.045
-0.354,-0.0215,0.044
-0.3545,-0.0205,0.0455
-0.3545,-0.0205,0.0455
-0.358,-0.0195,0.0465
-0.366,-0.0205,0.0475
-0.3665,-0.0235,0.0475
-0.366,-0.0225,0.048
-0.3655,-0.024,0.046
-0.368,-0.026,0.0465
-0.373,-0.025,0.049
-0.3695,-0.024,0.0505
-0.3685,-0.025,0.0495
-0.369,-0.026,0.0495
-0.3685,-0.0225,0.0515
-0.372,-0.023,0.052
-0.377,-0.023,0.0535
-0.3795,-0.0215,0.0545
-0.382,-0.023,0.0555
-0.3815,-0.021,0.0555
-0.3785,-0.0195,0.0545
-0.38,-0.0195,0.056
-0.3755,-0.0185,0.059
-0.37,-0.0195,0.06
-0.3675,-0.02,0.0605
-0.374,-0.02,0.061
-0.378,-0.0195,0.063
-0.3715,-0.0175,0.0635
-0.3675,-0.0165,0.0625
-0.365,-0.017,0.0645
-0.3665,-0.017,0.063
-0.36,-0.017,0.0625
-0.356,-0.015,0.061
-0.354,-0.0135,0.06
-0.346,-0.012,0.062
-0.3465,-0.013,0.0605
-0.3465,-0.016,0.0585
-0.351,-0.021,0.055
-0.359,-0.0285,0.0515
-0.36,-0.036,0.0455
-0.362,-0.0465,0.041
-0.3745,-0.0625,0.0345
-0.385,-0.082,0.026
-0.3885,-0.0985,0.016
-0.391,-0.1185,-0.001
-0.396,-0.135,-0.013
-0.4025,-0.1435,-0.0175
-0.3985,-0.1475,-0.0205
-0.3905,-0.1475,-0.0255
-0.3855,-0.152,-0.0275
-0.3835,-0.1465,-0.0255
-0.3735,-0.1365,-0.0275
-0.356,-0.1175,-0.029
-0.3365,-0.081,-0.0315
-0.311,-0.047,-0.041
-0.2915,-0.017,-0.046
-0.273,0.0225,-0.0405
-0.257,0.06,-0.03
-0.2425,0.106,-0.011
-0.21,0.1755,0.0085
-0.174,0.24,0.021
-0.1515,0.294,0.034
-0.122,0.3545,0.0555
-0.0925,0.42,0.085
-0.0635,0.491,0.1305
-0.0185,0.5885,0.183
0.011,0.6785,0.224
0.0235,0.736,0.287
0.0465,0.8125,0.3525
0.071,0.9135,0.419
0.073,0.979,0.489
0.0695,1.0215,0.5225
0.082,1.084,0.54
0.0995,1.1565,0.56
0.107,1.212,0.576
0.095,1.24,0.572
0.0765,1.2655,0.575
0.051,1.249,0.572
0.0085,1.1715,0.54
-0.041,1.09,0.5
-0.08,0.9805,0.4075
-0.1205,0.8415,0.3115
-0.178,0.69,0.2775
-0.2525,0.4915,0.259
-0.333,0.2595,0.2465
-0.4155,0.0045,0.2305
-0.49,-0.2085,0.2065
-0.5325,-0.3565,0.185
-0.5365,-0.427,0.1585
-0.5285,-0.4315,0.1235
-0.5265,-0.445,0.083
-0.5265,-0.4575,0.049
-0.5255,-0.4515,0.018
-0.5305,-0.4415,-0.01
-0.537,-0.4395,-0.037
-0.5385,-0.4415,-0.0555
-0.5345,-0.43,-0.0545
-0.5185,-0.3995,-0.045
-0.509,-0.3725,-0.0365
-0.4975,-0.34,-0.031
-0.4815,-0.309,-0.02
-0.4725,-0.2845,-0.008
-0.4555,-0.252,0.0065
-0.435,-0.2155,0.0155
-0.4135,-0.176,0.0195
-0.395,-0.1425,0.0295
-0.387,-0.1195,0.0315
-0.376,-0.1005,0.0365
-0.3635,-0.0795,0.0385
-0.3585,-0.063,0.039
-0.3515,-0.0535,0.0415
-0.344,-0.041,0.041
-0.34,-0.031,0.0505
-0.333,-0.022,0.0615
-0.326,-0.0165,0.0675
-0.324,-0.014,0.0735
-0.3205,-0.0125,0.0815
-0.3165,-0.0115,0.085
-0.3155,-0.008,0.0875
-0.3115,-0.0045,0.093
-0.306,-0.0015,0.097
-0.3085,-0.0005,0.101
-0.3105,0.001,0.103
-0.306,0.0005,0.105
-0.3095,-0.001,0.106
-0.31,-0.001,0.106
-0.3105,-0.002,0.106
-0.3145,-0.0025,0.1045
-0.308,-0.002,0.1035
-0.308,-0.0025,0.103
-0.3045,-0.001,0.0985
-0.297,0.001,0.0955
-0.299,-0.001,0.0925
-0.2975,-0.001,0.09
-0.296,0.0,0.088
-0.296,-0.0005,0.0845
-0.2965,-0.001,0.0885
-0.298,-0.0025,0.0875
-0.301,-0.004,0.0875
-0.299,-0.0015,0.087
-0.2965,0.0005,0.0865
-0.3005,0.0005,0.0875
-0.3,0.0005,0.0865
-0.2995,-0.0005,0.09
-0.3005,-0.0005,0.089
-0.2955,-0.001,0.088
-0.288,-0.0005,0.0885
-0.2925,0.001,0.0895
-0.295,0.0015,0.092
-0.2935,0.004,0.092
-0.294,0.0065,0.0925
-0.285,0.0055,0.0935
-0.2865,0.0045,0.094
-0.29,0.0065,0.093
-0.288,0.0065,0.093
-0.286,0.006,0.0945
-0.285,0.007,0.093
-0.286,0.006,0.0905
-0.2845,0.0065,0.0925
-0.287,0.008,0.0905
-0.286,0.009,0.0865
-0.287,0.009,0.086
-0.2885,0.008,0.088
-0.2855,0.009,0.091
-0.285,0.009,0.0905
-0.2855,0.008,0.089
-0.2875,0.0085,0.0885
-0.2925,0.0095,0.088
-0.2935,0.009,0.0895
-0.2865,0.0105,0.091
-0.2835,0.0105,0.0895
-0.2815,0.011,0.0875
-0.28,0.0135,0.085
-0.2835,0.012,0.0855
-0.2835,0.013,0.086
-0.281,0.014,0.0855
-0.279,0.014,0.087
-0.2795,0.0145,0.089
-0.277,0.016,0.0885
-0.2735,0.0155,0.0845
-0.278,0.0165,0.0855
-0.28,0.018,0.087
-0.277,0.0205,0.0875
-0.2805,0.0205,0.0905
-0.279,0.018,0.091
-0.274,0.018,0.089
-0.272,0.017,0.089
-0.274,0.018,0.088
-0.2745,0.019,0.087
-0.272,0.021,0.089
-0.2725,0.0195,0.0875
-0.271,0.0165,0.0875
-0.2685,0.018,0.0835
-0.2605,0.022,0.0805
-0.2545,0.022,0.08
-0.2535,0.022,0.08
-0.2515,0.025,0.083
-0.2515,0.027,0.083
-0.255,0.028,0.084
-0.257,0.03,0.0825
-0.2575,0.0325,0.083
-0.2605,0.0345,0.0835
-0.261,0.034,0.0845
-0.257,0.034,0.0845
-0.2535,0.0345,0.0825
-0.256,0.035,0.0825
-0.2545,0.0365,0.0785
-0.2545,0.035,0.0825
-0.2605,0.0325,0.083
-0.26,0.0325,0.0805
-0.258,0.0305,0.079
-0.256,0.031,0.0765
-0.2545,0.031,0.0755
-0.254,0.032,0.0765
-0.2515,0.0325,0.075
-0.2515,0.0305,0.0755
-0.2555,0.0295,0.079
-0.255,0.03,0.077
-0.254,0.031,0.078
-0.2545,0.031,0.079
-0.255,0.033,0.078
-0.2585,0.034,0.08
-0.2565,0.0325,0.0815
-0.2555,0.0325,0.0825
-0.255,0.031,0.083
-0.254,0.031,0.0815
-0.259,0.0325,0.081
-0.259,0.032,0.0805
-0.2575,0.0335,0.0815
-0.2615,0.036,0.0835
-0.261,0.0385,0.0835
-0.2545,0.04,0.0815
-0.2525,0.0415,0.0805
-0.2525,0.042,0.0795
-0.2495,0.0435,0.077
-0.2485,0.044,0.078
-0.25,0.043,0.0785
-0.2525,0.044,0.0775
-0.254,0.043,0.0765
-0.251,0.043,0.075
-0.25,0.0435,0.0765
-0.2525,0.042,0.0765
-0.25,0.043,0.077
-0.249,0.043,0.0785
-0.2465,0.0425,0.0775
-0.2425,0.0435,0.077
-0.2415,0.043,0.0735
-0.2395,0.043,0.072
-0.2425,0.0445,0.0715
-0.2535,0.0455,0.072
-0.2565,0.0465,0.0745
-0.2425,0.0475,0.0735
-0.24,0.047,0.0725
-0.241,0.0495,0.0735
-0.237,0.051,0.075
-0.2415,0.0515,0.078
-0.2425,0.0525,0.0775
-0.239,0.055,0.077
-0.2375,0.0535,0.0765
-0.234,0.0515,0.0765
-0.2305,0.053,0.082
-0.2325,0.054,0.0825
-0.2315,0.056,0.081
-0.235,0.0565,0.0795
-0.2375,0.058,0.0795
-0.234,0.0585,0.0785
-0.232,0.059,0.0775
-0.233,0.0585,0.0795
-0.235,0.058,0.076
-0.2405,0.0595,0.0795
-0.2385,0.0605,0.0815
-0.225,0.0605,0.079
-0.222,0.063,0.0765
-0.2205,0.066,0.0745
-0.218,0.0665,0.0775
-0.223,0.0665,0.0785
-0.226,0.065,0.0765
-0.2235,0.0675,0.0765
-0.222,0.0695,0.076
-0.2195,0.071,0.074
-0.2205,0.0715,0.0745
-0.226,0.0725,0.0765
-0.2255,0.0745,0.0795
-0.2225,0.0775,0.0805
-0.2195,0.078,0.0835
-0.218,0.079,0.0865
-0.213,0.0835,0.085
-0.207,0.084,0.0855
-0.199,0.086,0.086
-0.2015,0.0855,0.089
-0.208,0.0855,0.089
-0.207,0.0875,0.086
-0.213,0.0865,0.0845
-0.2135,0.089,0.085
-0.2105,0.09,0.0865
-0.2125,0.0905,0.0865
-0.211,0.091,0.088
-0.211,0.0925,0.086
-0.213,0.0925,0.085
-0.21,0.0935,0.085
-0.205,0.0975,0.084
-0.2045,0.099,0.0865
-0.202,0.1015,0.089
-0.1985,0.1035,0.0915
-0.1965,0.1055,0.092
-0.1935,0.1085,0.09
-0.19,0.111,0.0895
-0.1885,0.1145,0.091
-0.1835,0.1185,0.094
-0.184,0.1215,0.0975
-0.1855,0.123,0.0985
-0.1755,0.125,0.0965
-0.173,0.1265,0.0975
-0.174,0.13,0.097
-0.173,0.1315,0.0965
-0.17,0.134,0.0985
-0.1665,0.136,0.0995
-0.167,0.137,0.1025
-0.1665,0.138,0.1015
-0.1625,0.138,0.102
-0.159,0.14,0.104
-0.16,0.1425,0.106
-0.1555,0.1465,0.1065
-0.149,0.15,0.106
-0.146,0.1525,0.1065
-0.1435,0.1545,0.1045
-0.1455,0.1555,0.1075
-0.146,0.1585,0.111
-0.1425,0.161,0.1125
-0.142,0.1625,0.115
-0.1465,0.1635,0.1165
-0.1445,0.1665,0.115
-0.1395,0.1705,0.1145
-0.1365,0.173,0.1155
-0.1355,0.175,0.1135
-0.136,0.1755,0.116
-0.136,0.178,0.119
-0.136,0.1795,0.116
-0.134,0.179,0.116
-0.131,0.184,0.119
-0.13,0.1875,0.12
-0.133,0.1885,0.123
-0.135,0.19,0.125
-0.1385,0.1905,0.125
-0.1375,0.1925,0.128
-0.1325,0.1965,0.131
-0.1325,0.1995,0.1305
-0.127,0.2005,0.1315
-0.1145,0.202,0.135
-0.1115,0.2035,0.1355
-0.1175,0.205,0.1365
-0.113,0.206,0.138
-0.1135,0.206,0.137
-0.118,0.2095,0.1355
-0.1155,0.211,0.1355
-0.1155,0.212,0.1385
-0.1135,0.2135,0.141
-0.1125,0.2145,0.1415
-0.118,0.2155,0.1415
-0.1175,0.2165,0.14
-0.1135,0.2165,0.14
-0.12,0.2185,0.142
-0.12,0.219,0.142
-0.1205,0.218,0.1465
-0.1245,0.218,0.1485
-0.124,0.217,0.146
-0.1255,0.2185,0.1495
-0.1295,0.2185,0.147
-0.135,0.2155,0.1445
-0.13,0.215,0.146
-0.1315,0.214,0.144
-0.1375,0.2095,0.1435
-0.138,0.2055,0.141
-0.144,0.2045,0.1395
-0.146,0.201,0.1375
-0.148,0.1975,0.136
-0.154,0.192,0.136
-0.1605,0.1865,0.1365
-0.168,0.182,0.1375
-0.167,0.179,0.1325
-0.165,0.177,0.128
-0.172,0.1715,0.1305
-0.1735,0.166,0.1305
-0.176,0.1615,0.1285
-0.184,0.1545,0.129
-0.1895,0.147,0.1245
-0.192,0.1405,0.123
-0.1895,0.1355,0.1235
-0.19,0.131,0.1205
-0.1985,0.1245,0.12
-0.2085,0.12,0.117
-0.2165,0.118,0.115
-0.2205,0.111,0.111
-0.2215,0.1085,0.106
-0.219,0.1075,0.105
-0.223,0.1025,0.1065
-0.2335,0.0995,0.105
-0.231,0.0955,0.1025
-0.2305,0.0915,0.102
-0.236,0.0875,0.0975
-0.237,0.083,0.094
-0.245,0.0795,0.095
-0.2495,0.0735,0.096
-0.2485,0.069,0.0945
-0.251,0.067,0.09
-0.256,0.0655,0.0895
-0.26,0.063,0.0875
-0.264,0.0585,0.0865
-0.262,0.058,0.0845
-0.263,0.0535,0.083
-0.268,0.051,0.0835
-0.268,0.0515,0.082
-0.271,0.0475,0.078
-0.269,0.045,0.074
-0.2675,0.043,0.072
-0.2715,0.0385,0.0725
-0.2775,0.035,0.0725
-0.2805,0.034,0.0675
-0.281,0.0305,0.065
-0.278,0.0275,0.0645
-0.275,0.0245,0.064
-0.2815,0.0255,0.0665
-0.2845,0.0245,0.0665
-0.285,0.0225,0.0655
-0.287,0.023,0.0655
-0.2885,0.0205,0.0625
-0.2925,0.018,0.062
-0.2935,0.0135,0.0625
-0.2905,0.0145,0.0625
-0.2945,0.0135,0.0625
-0.295,0.013,0.0605
-0.297,0.012,0.06
-0.3005,0.007,0.059
-0.2975,0.008,0.059
-0.2955,0.007,0.0595
-0.2945,0.0065,0.0615
-0.2965,0.0055,0.062
-0.2965,0.005,0.057
-0.2985,0.0035,0.0575
-0.2965,0.003,0.056
-0.2925,0.006,0.057
-0.296,0.0055,0.058
-0.296,0.0035,0.0575
-0.301,0.002,0.0605
-0.302,0.0025,0.057
-0.3015,0.0045,0.054
-0.305,0.007,0.0535
-0.302,0.0085,0.056
-0.2975,0.0075,0.057
-0.3005,0.0075,0.0545
-0.303,0.008,0.055
-0.303,0.005,0.0535
-0.3075,0.003,0.0545
-0.305,0.004,0.052
-0.303,0.002,0.0505
-0.304,0.0025,0.0525
-0.303,0.0015,0.05
-0.305,0.004,0.051
-0.311,0.0045,0.053
-0.309,0.004,0.0505
-0.3055,0.005,0.049
-0.3055,0.0035,0.052
-0.3025,0.0025,0.056
-0.3045,0.001,0.0535
-0.306,0.001,0.052
-0.308,0.0005,0.0535
-0.31,0.003,0.055
-0.3065,0.004,0.056
-0.3025,0.004,0.0565
-0.3025,0.0035,0.0565
-0.3005,0.0035,0.0525
-0.2965,0.0055,0.051
-0.2995,0.0035,0.051
-0.303,0.004,0.05
-0.308,0.003,0.0495
-0.3095,0.004,0.0485
-0.313,0.0045,0.047
-0.3155,0.0045,0.047
-0.313,0.007,0.0475
-0.3105,0.0055,0.0465
-0.3055,0.006,0.0465
-0.3105,0.006,0.048
-0.311,0.007,0.051
-0.309,0.006,0.053
-0.3155,0.005,0.053
-0.317,0.0045,0.052
-0.3145,0.0055,0.0535
-0.3115,0.006,0.052
-0.3075,0.004,0.052
-0.3095,0.004,0.0545
-0.311,0.0025,0.053
-0.305,0.002,0.0535
-0.3145,0.0005,0.055
-0.3175,-0.002,0.057
-0.3075,-0.0025,0.055
-0.3065,-0.004,0.0565
-0.307,-0.004,0.0575
-0.314,-0.0035,0.054
-0.3175,-0.003,0.054
-0.3135,-0.002,0.0535
-0.311,-0.004,0.053
-0.314,-0.005,0.054
-0.3155,-0.005,0.0545
-0.314,-0.006,0.0555
-0.3175,-0.006,0.056
-0.317,-0.0055,0.0565
-0.3135,-0.0055,0.055
-0.311,-0.004,0.0545
-0.308,-0.002,0.055
-0.3085,-0.002,0.0525
-0.312,-0.004,0.0545
-0.3125,-0.005,0.052
-0.317,-0.002,0.052
-0.321,-0.003,0.0565
-0.318,-0.005,0.055
-0.321,-0.0065,0.058
-0.325,-0.009,0.0555
-0.321,-0.0095,0.056
-0.322,-0.011,0.057
-0.3195,-0.009,0.0585
-0.316,-0.0065,0.062
-0.32,-0.0065,0.059
-0.323,-0.0075,0.066
-0.3255,-0.0125,0.069
-0.321,-0.0125,0.064
-0.3155,-0.0105,0.063
-0.316,-0.0125,0.062
-0.3115,-0.0115,0.0635
-0.31,-0.0085,0.063
-0.313,-0.008,0.063
-0.311,-0.0065,0.0655
-0.3085,-0.0045,0.065
-0.316,-0.0055,0.0645
-0.3205,-0.0075,0.0655
-0.3195,-0.0055,0.0655
-0.32,-0.0035,0.0685
-0.322,-0.0035,0.0685
-0.326,-0.004,0.066
-0.3265,-0.004,0.0675
-0.3265,-0.0055,0.0655
-0.324,-0.005,0.0645
-0.324,-0.002,0.065
-0.3235,-0.0035,0.065
-0.3215,-0.003,0.067
-0.321,-0.0015,0.066
-0.3185,-0.0005,0.0625
-0.316,0.0,0.0635
-0.314,-0.002,0.066
-0.3125,-0.0015,0.0645
-0.314,-0.002,0.0655
-0.32,-0.001,0.063
-0.319,0.001,0.059
-0.319,-0.002,0.059
-0.3305,-0.0035,0.0595
-0.3295,-0.0045,0.062
-0.3235,-0.006,0.0605
-0.3245,-0.007,0.0625
-0.324,-0.0055,0.063
-0.3235,-0.0065,0.0625
-0.3195,-0.0075,0.062
-0.318,-0.007,0.0595
-0.3195,-0.0065,0.064
-0.319,-0.006,0.065
-0.3205,-0.007,0.0655
-0.3205,-0.0075,0.066
-0.323,-0.007,0.0635
-0.3325,-0.006,0.064
-0.3335,-0.006,0.065
-0.3265,-0.005,0.0685
-0.325,-0.0035,0.071
-0.3245,-0.0025,0.067
-0.321,-0.001,0.0665
-0.3185,-0.002,0.0655
-0.324,-0.0025,0.0665
-0.326,-0.005,0.069
-0.3195,-0.006,0.068
-0.3225,-0.006,0.064
-0.3265,-0.0055,0.064
-0.3305,-0.002,0.0645
-0.334,-0.0025,0.061
-0.339,-0.005,0.0625
-0.3415,-0.004,0.0655
-0.3355,-0.002,0.066
-0.333,-0.003,0.0675
-0.3285,-0.004,0.0665
-0.3265,-0.0045,0.0645
-0.3265,-0.0035,0.0665
-0.324,-0.0025,0.067
-0.324,-0.0035,0.067
-0.323,-0.0035,0.0675
-0.323,-0.004,0.065
-0.32,-0.002,0.0635
-0.3175,-0.001,0.0615
-0.321,-0.003,0.062
-0.323,-0.0035,0.063
-0.3205,-0.0045,0.065
-0.3225,-0.0065,0.067
-0.321,-0.003,0.064
-0.32,-0.0025,0.0635
-0.317,-0.002,0.064
-0.3125,-0.002,0.0625
-0.3185,-0.008,0.0665
-0.3155,-0.0065,0.0685
-0.3105,-0.007,0.069
-0.312,-0.0095,0.072
-0.3125,-0.007,0.0715
-0.3135,-0.0065,0.0695
-0.3145,-0.0075,0.071
-0.31,-0.008,0.0735
-0.313,-0.0055,0.0735
-0.3155,-0.0035,0.071
-0.3095,-0.002,0.0685
-0.309,-0.0035,0.068
-0.3115,-0.004,0.065
-0.3145,-0.002,0.067
-0.311,-0.0005,0.071
-0.3015,0.0,0.0695
-0.303,0.0,0.067
-0.3075,0.001,0.0645
-0.297,0.0015,0.0615
-0.295,0.0045,0.061
-0.2925,0.0065,0.061
-0.2765,0.0065,0.0615
-0.274,0.006,0.0625
-0.2995,0.005,0.062
-0.333,0.0025,0.0665
-0.3225,0.0035,0.067
-0.307,0.0055,0.0665
-0.3015,0.0075,0.0665
-0.3,0.008,0.065
-0.3065,0.004,0.065
-0.3,0.0025,0.0665
-0.301,0.001,0.066
-0.3035,0.001,0.0645
-0.307,-0.001,0.066
-0.3115,-0.004,0.068
-0.308,-0.004,0.067
-0.3055,-0.003,0.0675
-0.3065,-0.0035,0.0665
-0.3025,-0.004,0.065
-0.2975,-0.0005,0.067
-0.2975,0.001,0.0665
-0.296,0.001,0.0655
-0.298,0.001,0.0695
-0.3025,0.0015,0.072
-0.3065,-0.001,0.07
-0.3045,-0.001,0.0675
-0.301,-0.0005,0.0685
-0.3,-0.0035,0.0685
-0.302,-0.0055,0.0675
-0.3085,-0.0085,0.0665
-0.3065,-0.0095,0.0635
-0.304,-0.012,0.0635
-0.3035,-0.013,0.064
-0.3045,-0.013,0.065
-0.3065,-0.014,0.0665
-0.3075,-0.0145,0.065
-0.3085,-0.0165,0.065
-0.3095,-0.0155,0.0655
-0.3095,-0.013,0.062
-0.3065,-0.012,0.0635
-0.307,-0.011,0.065
-0.305,-0.0095,0.063
-0.3015,-0.0095,0.066
-0.2995,-0.01,0.0645
-0.297,-0.0115,0.0645
-0.294,-0.0115,0.07
-0.2915,-0.01,0.0695
-0.2895,-0.0075,0.0675
-0.293,-0.0065,0.0695
-0.2975,-0.008,0.07
-0.292,-0.0095,0.068
-0.291,-0.012,0.0645
-0.2925,-0.0115,0.0625
-0.297,-0.013,0.065
-0.301,-0.0115,0.07
-0.296,-0.0065,0.07
-0.298,-0.0075,0.0655
-0.3015,-0.01,0.065
-0.2985,-0.0115,0.0635
-0.2895,-0.008,0.063
-0.2865,-0.0055,0.0615
-0.287,-0.008,0.0605
-0.2845,-0.007,0.0645
-0.2885,-0.0075,0.0645
-0.2915,-0.009,0.063
-0.2935,-0.0065,0.0625
-0.293,-0.0055,0.0625
-0.2915,-0.007,0.062
-0.295,-0.0075,0.063
-0.2935,-0.007,0.0615
-0.2885,-0.0065,0.06
-0.286,-0.007,0.0595
-0.285,-0.009,0.054
-0.2865,-0.0085,0.0555
-0.293,-0.0075,0.0615
-0.2905,-0.0075,0.064
-0.286,-0.005,0.0625
-0.29,-0.0065,0.0595
-0.285,-0.006,0.061
-0.2785,-0.0055,0.0595
-0.285,-0.0105,0.0605
-0.2815,-0.011,0.0635
-0.2815,-0.011,0.064
-0.2905,-0.0145,0.0695
-0.2825,-0.0135,0.0695
-0.2785,-0.015,0.071
-0.2795,-0.012,0.0725
-0.28,-0.0105,0.0705
-0.2845,-0.014,0.07
-0.285,-0.012,0.0665
-0.2795,-0.0115,0.064
-0.28,-0.0115,0.063
-0.28,-0.012,0.0625
-0.2785,-0.0105,0.062
-0.2885,-0.01,0.0635
-0.295,-0.0115,0.0665
-0.2945,-0.009,0.0645
-0.295,-0.006,0.0625
-0.2925,-0.0045,0.062
-0.29,-0.0055,0.059
-0.293,-0.0045,0.062
-0.2895,-0.002,0.0615
-0.284,-0.004,0.062
-0.287,-0.003,0.063
-0.285,-0.001,0.06
-0.2865,-0.005,0.059
-0.289,-0.006,0.058
-0.2825,-0.004,0.057
-0.2865,-0.007,0.0625
-0.29,-0.0085,0.065
-0.2865,-0.0095,0.0625
-0.283,-0.012,0.0605
-0.286,-0.0155,0.056
-0.285,-0.016,0.057
-0.2805,-0.0145,0.06
-0.285,-0.013,0.0655
-0.281,-0.01,0.064
-0.2855,-0.01,0.0605
-0.287,-0.0125,0.0625
-0.2815,-0.0125,0.061
-0.2865,-0.0145,0.059
-0.286,-0.0135,0.0595
-0.284,-0.0135,0.062
-0.283,-0.015,0.06
-0.283,-0.013,0.0605
-0.2815,-0.0135,0.061
-0.2775,-0.0125,0.06
-0.2775,-0.0145,0.0605
-0.2855,-0.017,0.0575
-0.2885,-0.014,0.0585
-0.2895,-0.013,0.0605
-0.2955,-0.0155,0.057
-0.292,-0.015,0.0545
-0.287,-0.0155,0.0555
-0.2865,-0.016,0.0545
-0.283,-0.0115,0.053
-0.2815,-0.0105,0.0515
-0.2825,-0.01,0.0515
-0.2815,-0.008,0.0505
-0.2835,-0.0115,0.0495
-0.285,-0.0125,0.0495
-0.2835,-0.0115,0.0515
-0.284,-0.0115,0.051
-0.2815,-0.0105,0.051
-0.2795,-0.009,0.053
-0.2785,-0.01,0.054
-0.2835,-0.01,0.0565
-0.2845,-0.008,0.0545
-0.2825,-0.005,0.054
-0.2875,-0.0035,0.0565
-0.283,-0.002,0.0585
-0.2815,0.0005,0.058
-0.2865,0.0005,0.057
-0.288,0.0015,0.058
-0.2795,0.001,0.058
-0.277,-0.0005,0.0605
-0.283,0.0005,0.0585
-0.2835,-0.0015,0.052
-0.288,-0.003,0.05
-0.2855,-0.0045,0.0505
-0.2835,-0.007,0.0535
-0.2815,-0.0045,0.0525
-0.284,-0.007,0.053
-0.2905,-0.01,0.054
-0.2905,-0.0075,0.051
-0.292,-0.008,0.05
-0.289,-0.008,0.051
-0.2865,-0.0095,0.05
-0.2885,-0.01,0.0485
-0.2895,-0.0095,0.051
-0.286,-0.01,0.0515
-0.285,-0.006,0.047
-0.287,-0.007,0.042
-0.2905,-0.009,0.044
-0.292,-0.011,0.0445
-0.293,-0.0135,0.0425
-0.2935,-0.0115,0.0425
-0.2945,-0.012,0.0425
-0.295,-0.012,0.0485
-0.288,-0.009,0.05
-0.291,-0.0095,0.0525
-0.293,-0.009,0.0585
-0.289,-0.0095,0.06
-0.2865,-0.0095,0.059
-0.2825,-0.0065,0.0585
-0.284,-0.0075,0.057
-0.2865,-0.006,0.058
-0.281,-0.001,0.056
-0.2785,0.0025,0.053
-0.2805,0.0055,0.0535
-0.2755,0.0075,0.0495
-0.274,0.0105,0.049
-0.2715,0.012,0.049
-0.2695,0.0135,0.05
-0.2705,0.016,0.0495
-0.2695,0.02,0.0455
-0.2685,0.022,0.048
-0.266,0.024,0.0475
-0.2595,0.025,0.0445
-0.252,0.0275,0.0435
-0.2535,0.033,0.048
-0.2535,0.0365,0.0555
-0.2485,0.038,0.0575
-0.2535,0.0345,0.0585
-0.2545,0.035,0.064
-0.25,0.0375,0.0685
-0.247,0.0385,0.069
-0.2425,0.0455,0.0745
-0.237,0.051,0.0745
-0.231,0.0545,0.073
-0.227,0.057,0.079
-0.2275,0.0565,0.0825
-0.224,0.0605,0.081
-0.22,0.064,0.0795
-0.222,0.063,0.0805
-0.224,0.066,0.077
-0.236,0.07,0.073
-0.2395,0.075,0.0695
-0.231,0.0825,0.067
-0.225,0.089,0.07
-0.2185,0.0945,0.0705
-0.2115,0.101,0.0715
-0.2055,0.1055,0.0725
-0.204,0.1065,0.072
-0.1995,0.1075,0.0735
-0.193,0.1085,0.0765
-0.187,0.1145,0.078
-0.175,0.116,0.0815
-0.1715,0.115,0.081
-0.177,0.114,0.0795
-0.1765,0.111,0.081
-0.1795,0.109,0.084
-0.182,0.1055,0.083
-0.1865,0.103,0.078
-0.1935,0.098,0.0745
-0.1935,0.0925,0.0725
-0.1975,0.088,0.0775
-0.199,0.0855,0.084
-0.1935,0.0835,0.085
-0.196,0.075,0.0855
-0.2055,0.0685,0.085
-0.209,0.066,0.0855
-0.2115,0.062,0.0885
-0.2175,0.059,0.0875
-0.2155,0.059,0.086
-0.212,0.0575,0.0875
-0.208,0.0575,0.0905
-0.2005,0.0575,0.0935
-0.2025,0.0575,0.094
-0.206,0.058,0.088
-0.1995,0.061,0.0845
-0.198,0.0605,0.08
-0.208,0.0585,0.071
-0.2145,0.0575,0.0655
-0.2155,0.053,0.0595
-0.2175,0.049,0.0615
-0.218,0.0445,0.0595
-0.2235,0.046,0.057
-0.223,0.0475,0.061
-0.2175,0.0465,0.058
-0.216,0.047,0.0555
-0.2145,0.0465,0.055
-0.2195,0.043,0.053
-0.215,0.0355,0.044
-0.2035,0.036,0.0385
-0.205,0.0365,0.0425
-0.208,0.033,0.046
-0.207,0.0345,0.0475
-0.206,0.033,0.0455
-0.205,0.0315,0.0415
-0.2025,0.0335,0.0395
-0.203,0.034,0.042
-0.207,0.034,0.0475
-0.205,0.035,0.055
-0.202,0.0375,0.063
-0.208,0.037,0.069
-0.2195,0.03,0.0765
-0.2335,0.0215,0.0765
-0.24,0.016,0.0715
-0.2465,0.0105,0.0705
-0.2585,0.004,0.068
-0.2575,0.0025,0.064
-0.2525,0.001,0.0625
-0.254,0.0,0.063
-0.2605,-0.0045,0.0575
-0.262,-0.0095,0.055
-0.2655,-0.011,0.0595
-0.264,-0.0095,0.058
-0.265,-0.013,0.0555
-0.2665,-0.018,0.0495
-0.2625,-0.0165,0.0445
-0.2635,-0.0185,0.0455
-0.2635,-0.0195,0.043
-0.2615,-0.0185,0.0415
-0.26,-0.0175,0.0425
-0.262,-0.016,0.042
-0.259,-0.0155,0.04
-0.267,-0.0185,0.0385
-0.268,-0.018,0.038
-0.2565,-0.0175,0.039
-0.2635,-0.021,0.0435
-0.273,-0.026,0.0425
-0.2765,-0.0285,0.0405
-0.2695,-0.024,0.044
-0.263,-0.0225,0.0445
-0.262,-0.023,0.0455
-0.2645,-0.0265,0.0475
-0.263,-0.0265,0.045
-0.2635,-0.026,0.046
-0.267,-0.028,0.0435
-0.264,-0.026,0.044
-0.261,-0.0275,0.0445
-0.2585,-0.031,0.0415
-0.263,-0.034,0.0395
-0.2655,-0.031,0.0435
-0.266,-0.03,0.046
-0.265,-0.0315,0.0435
-0.264,-0.0315,0.0465
-0.2635,-0.0325,0.0495
-0.2595,-0.0315,0.049
-0.266,-0.03,0.047
-0.2645,-0.0275,0.046
-0.2615,-0.0315,0.0485
-0.2665,-0.035,0.05
-0.2645,-0.035,0.046
-0.269,-0.036,0.044
-0.262,-0.034,0.0485
-0.257,-0.034,0.0505
-0.266,-0.038,0.0475
-0.2705,-0.036,0.0455
-0.2675,-0.036,0.045
-0.27,-0.037,0.046
-0.2785,-0.035,0.0465
-0.272,-0.037,0.048
-0.2595,-0.037,0.052
-0.264,-0.0385,0.0505
-0.2785,-0.0375,0.0535
-0.28,-0.0345,0.059
-0.282,-0.036,0.054
-0.2815,-0.037,0.049
-0.2775,-0.0375,0.0445
-0.2785,-0.0375,0.0445
-0.2785,-0.036,0.0475
-0.2795,-0.032,0.044
-0.2795,-0.0305,0.041
-0.2815,-0.027,0.0445
-0.279,-0.026,0.0465
-0.2755,-0.027,0.0475
-0.283,-0.029,0.0455
-0.2865,-0.0325,0.046
-0.282,-0.0285,0.0485
-0.2835,-0.0285,0.047
-0.2795,-0.0305,0.0475
-0.2745,-0.03,0.047
-0.273,-0.0295,0.051
-0.2765,-0.0315,0.0535
-0.278,-0.032,0.0545
-0.274,-0.0325,0.0535
-0.276,-0.034,0.051
-0.2765,-0.0335,0.054
-0.2745,-0.033,0.0565
-0.275,-0.031,0.057
-0.276,-0.0295,0.0575
-0.276,-0.026,0.0575
-0.2765,-0.0255,0.054
-0.276,-0.0265,0.0535
-0.2785,-0.0255,0.0565
-0.278,-0.0255,0.06
-0.2785,-0.0255,0.0585
-0.278,-0.025,0.0585
-0.2745,-0.0245,0.0595
-0.272,-0.0245,0.056
-0.2655,-0.026,0.0545
-0.2695,-0.0285,0.0555
-0.2765,-0.0285,0.0575
-0.2795,-0.03,0.057
-0.279,-0.0305,0.056
-0.2795,-0.0325,0.053
-0.2895,-0.0405,0.051
-0.2965,-0.0445,0.048
-0.3005,-0.049,0.045
-0.3055,-0.06,0.04
-0.315,-0.0785,0.029
-0.323,-0.095,0.022
-0.324,-0.1125,0.0065
-0.3245,-0.134,-0.0115
-0.3275,-0.146,-0.0135
-0.323,-0.1515,-0.0175
-0.322,-0.1535,-0.0275
-0.3315,-0.1615,-0.033
-0.332,-0.1655,-0.035
-0.3285,-0.1585,-0.0395
-0.3195,-0.1475,-0.0445
-0.296,-0.118,-0.045
-0.264,-0.078,-0.0525
-0.244,-0.0495,-0.065
-0.226,-0.0155,-0.0665
-0.2055,0.0295,-0.059
-0.195,0.0685,-0.0425
-0.1735,0.1275,-0.0205
-0.142,0.1975,-0.005
-0.1135,0.252,0.005
-0.086,0.3075,0.02
-0.059,0.369,0.044
-0.0325,0.437,0.0835
0.007,0.525,0.138
0.0485,0.625,0.179
0.074,0.6995,0.231
0.0885,0.7575,0.304
0.1065,0.8455,0.3635
0.122,0.9295,0.4335
0.121,0.982,0.4845
0.128,1.0405,0.509
0.137,1.109,0.534
0.1435,1.174,0.5535
0.142,1.2155,0.56
0.1245,1.2425,0.557
0.095,1.248,0.562
0.0565,1.192,0.546
0.0165,1.1145,0.5205
-0.014,1.029,0.467
-0.0425,0.894,0.363
-0.1005,0.7425,0.303
-0.1735,0.5595,0.2785
-0.244,0.347,0.258
-0.33,0.1,0.2495
-0.412,-0.1395,0.227
-0.458,-0.312,0.199
-0.477,-0.423,0.18
-0.4785,-0.4465,0.1545
-0.473,-0.455,0.116
-0.479,-0.476,0.082
-0.487,-0.474,0.0535
-0.4815,-0.4655,0.022
-0.4855,-0.462,-0.0065
-0.499,-0.4615,-0.0295
-0.504,-0.455,-0.0425
-0.5025,-0.434,-0.036
-0.4865,-0.4075,-0.033
-0.4705,-0.3755,-0.0335
-0.457,-0.3385,-0.019
-0.4385,-0.309,-0.0085
-0.4295,-0.2855,0.001
-0.407,-0.2515,0.0175
-0.3845,-0.2115,0.023
-0.3675,-0.175,0.026
-0.3465,-0.1455,0.0325
-0.3295,-0.122,0.0355
-0.318,-0.1015,0.033
-0.308,-0.084,0.0295
-0.2965,-0.0665,0.0305
-0.29,-0.056,0.028
-0.2785,-0.045,0.027
-0.272,-0.0365,0.0405
-0.2735,-0.0335,0.0555
-0.271,-0.026,0.059
-0.266,-0.0245,0.064
-0.26,-0.022,0.0715
-0.255,-0.0165,0.075
-0.2555,-0.0155,0.075
-0.256,-0.0115,0.0825
-0.252,-0.009,0.093
-0.248,-0.008,0.0985
-0.249,-0.01,0.1025
-0.2525,-0.0105,0.0975
-0.2515,-0.0075,0.093
-0.252,-0.0085,0.0925
-0.2495,-0.007,0.093
-0.2505,-0.005,0.098
-0.255,-0.0075,0.0955
-0.2495,-0.0055,0.0925
-0.2435,-0.0025,0.0945
-0.244,-0.0005,0.092
-0.253,-0.0035,0.0905
-0.253,-0.005,0.092
-0.244,0.0005,0.0885
-0.2425,0.0005,0.089
-0.251,-0.0015,0.093
-0.2535,0.0,0.0935
-0.2475,-0.001,0.0925
-0.244,-0.0005,0.0905
-0.241,0.0015,0.0885
-0.2505,-0.0015,0.088
-0.254,-0.0035,0.09
-0.2425,0.0005,0.094
-0.244,0.003,0.0945
-0.251,0.0045,0.094
-0.251,0.0075,0.092
-0.2495,0.0055,0.093
-0.2515,0.005,0.0925
-0.2525,0.0045,0.089
-0.251,0.007,0.0905
-0.252,0.01,0.089
-0.253,0.008,0.087
-0.252,0.011,0.094
-0.25,0.012,0.094
-0.246,0.012,0.09
-0.2475,0.0095,0.095
-0.2485,0.0065,0.097
-0.2445,0.007,0.098
-0.251,0.002,0.096
-0.2545,-0.002,0.098
-0.2505,0.0005,0.0995
-0.245,0.003,0.098
-0.2385,0.0055,0.0975
-0.239,0.005,0.097
-0.239,0.0055,0.098
-0.233,0.007,0.0985
-0.2305,0.007,0.0995
-0.2375,0.0075,0.0985
-0.236,0.006,0.0995
-0.2315,0.0065,0.0955
-0.229,0.007,0.095
-0.2295,0.009,0.098
-0.24,0.008,0.097
-0.2465,0.007,0.0965
-0.2465,0.0115,0.0925
-0.246,0.01,0.091
-0.244,0.009,0.0885
-0.2405,0.0105,0.085
-0.244,0.0095,0.09
-0.2455,0.009,0.0905
-0.24,0.011,0.0895
-0.2365,0.011,0.0875
-0.2385,0.0105,0.0835
-0.236,0.0135,0.086
-0.2335,0.0155,0.086
-0.236,0.0155,0.088
-0.238,0.0145,0.094
-0.2425,0.016,0.0955
-0.2395,0.018,0.09
-0.2375,0.017,0.088
-0.236,0.0195,0.0915
-0.231,0.023,0.0925
-0.2315,0.0205,0.0915
-0.23,0.02,0.0905
-0.2355,0.0195,0.09
-0.237,0.02,0.0875
-0.2255,0.022,0.0875
-0.2225,0.021,0.0895
-0.23,0.021,0.0905
-0.234,0.023,0.0915
-0.2345,0.0205,0.0915
-0.2345,0.0165,0.0935
-0.23,0.018,0.092
-0.2335,0.0185,0.092
-0.238,0.0165,0.0945
-0.231,0.0155,0.0925
-0.2275,0.017,0.09
-0.225,0.018,0.092
-0.218,0.0155,0.094
-0.2145,0.019,0.094
-0.214,0.023,0.095
-0.218,0.0225,0.0915
-0.2265,0.02,0.091
-0.23,0.02,0.0985
-0.2335,0.0235,0.0965
-0.233,0.024,0.092
-0.227,0.028,0.097
-0.217,0.027,0.0975
-0.216,0.026,0.096
-0.2275,0.0285,0.0995
-0.2305,0.0275,0.099
-0.229,0.0235,0.0975
-0.228,0.022,0.098
-0.2255,0.024,0.0955
-0.2215,0.0275,0.0955
-0.2165,0.031,0.092
-0.217,0.0305,0.092
-0.216,0.03,0.094
-0.2135,0.0275,0.0885
-0.2105,0.029,0.0845
-0.2075,0.028,0.08
-0.208,0.0265,0.0815
-0.206,0.03,0.086
-0.208,0.031,0.0855
-0.213,0.029,0.0835
-0.22,0.028,0.0825
-0.224,0.031,0.086
-0.223,0.0285,0.0875
-0.219,0.0255,0.085
-0.221,0.028,0.0905
-0.2245,0.022,0.093
-0.221,0.0165,0.0865
-0.221,0.016,0.09
-0.216,0.019,0.0875
-0.211,0.024,0.0865
-0.2075,0.0235,0.0895
-0.206,0.025,0.087
-0.208,0.026,0.088
-0.2025,0.0265,0.085
-0.196,0.028,0.085
-0.1935,0.028,0.0845
-0.2015,0.0295,0.0855
-0.1985,0.033,0.0905
-0.197,0.033,0.086
-0.2025,0.032,0.085
-0.2,0.037,0.0865
-0.203,0.039,0.088
-0.2,0.042,0.0935
-0.194,0.049,0.091
-0.1955,0.049,0.094
-0.199,0.0495,0.094
-0.1895,0.053,0.0935
-0.185,0.055,0.0935
-0.19,0.055,0.092
-0.1905,0.0535,0.0945
-0.186,0.053,0.093
-0.185,0.05,0.095
-0.187,0.048,0.091
-0.1795,0.0485,0.086
-0.179,0.046,0.0835
-0.179,0.047,0.081
-0.177,0.0495,0.081
-0.177,0.049,0.085
-0.175,0.048,0.086
-0.176,0.048,0.0815
-0.1775,0.047,0.0825
-0.1745,0.049,0.0895
-0.1715,0.053,0.092
-0.172,0.052,0.09
-0.165,0.056,0.095
-0.165,0.06,0.0995
-0.171,0.062,0.0995
-0.1655,0.0665,0.0975
-0.1635,0.0675,0.0915
-0.167,0.068,0.0915
-0.164,0.07,0.0915
-0.1655,0.069,0.091
-0.164,0.07,0.092
-0.1545,0.0725,0.091
-0.149,0.0755,0.0905
-0.1465,0.08,0.0925
-0.1425,0.083,0.0935
-0.143,0.0835,0.0925
-0.1465,0.081,0.093
-0.146,0.082,0.0935
-0.151,0.0805,0.0945
-0.15,0.0785,0.094
-0.1415,0.0815,0.0955
-0.1385,0.085,0.097
-0.138,0.0865,0.0975
-0.143,0.085,0.0995
-0.1425,0.0875,0.1025
-0.1395,0.0915,0.106
-0.136,0.0935,0.1025
-0.13,0.095,0.101
-0.124,0.097,0.1045
-0.1205,0.1,0.107
-0.1225,0.106,0.1095
-0.118,0.1085,0.1115
-0.115,0.1095,0.112
-0.1205,0.111,0.1105
-0.116,0.1135,0.111
-0.1115,0.118,0.1095
-0.1105,0.1225,0.109
-0.1095,0.127,0.1085
-0.1115,0.1275,0.1115
-0.108,0.1285,0.113
-0.104,0.1305,0.1115
-0.1045,0.1335,0.1165
-0.105,0.1365,0.12
-0.1035,0.141,0.1235
-0.1045,0.144,0.119
-0.104,0.146,0.117
-0.098,0.148,0.1205
-0.095,0.1465,0.12
-0.0925,0.148,0.1215
-0.0835,0.151,0.1215
-0.0805,0.1515,0.124
-0.0805,0.1525,0.123
-0.079,0.154,0.116
-0.084,0.154,0.123
-0.082,0.155,0.127
-0.079,0.159,0.1235
-0.083,0.161,0.1265
-0.0895,0.1615,0.1325
-0.092,0.162,0.134
-0.087,0.162,0.132
-0.0775,0.163,0.13
-0.0745,0.165,0.1275
-0.0805,0.166,0.1325
-0.085,0.1675,0.1395
-0.0935,0.169,0.1395
-0.085,0.171,0.1365
-0.076,0.1725,0.134
-0.0795,0.173,0.134
-0.079,0.174,0.1385
-0.081,0.1735,0.139
-0.0735,0.179,0.137
-0.0625,0.182,0.1365
-0.0625,0.1815,0.1365
-0.061,0.184,0.1385
-0.0585,0.1855,0.137
-0.06,0.185,0.137
-0.0525,0.189,0.14
-0.0545,0.192,0.1445
-0.0645,0.1915,0.1455
-0.0635,0.1915,0.1455
-0.0635,0.193,0.1475
-0.067,0.194,0.147
-0.0655,0.195,0.151
-0.063,0.1955,0.154
-0.067,0.192,0.1545
-0.0645,0.195,0.154
-0.057,0.2,0.153
-0.0565,0.201,0.1575
-0.055,0.2045,0.1565
-0.056,0.2045,0.1555
-0.063,0.2,0.1595
-0.06,0.1975,0.1605
-0.0635,0.1945,0.158
-0.068,0.1905,0.151
-0.0655,0.1875,0.147
-0.0725,0.182,0.1515
-0.076,0.1765,0.15
-0.08,0.1715,0.146
-0.0865,0.1655,0.148
-0.0855,0.163,0.1455
-0.0905,0.16,0.1415
-0.0975,0.155,0.1435
-0.1045,0.149,0.148
-0.106,0.144,0.147
-0.1055,0.144,0.141
-0.11,0.1375,0.137
-0.113,0.1325,0.1395
-0.122,0.13,0.1365
-0.1255,0.123,0.1295
-0.13,0.1185,0.129
-0.132,0.118,0.125
-0.1305,0.116,0.1225
-0.1385,0.109,0.1255
-0.137,0.1085,0.1235
-0.138,0.1065,0.119
-0.1435,0.102,0.118
-0.146,0.098,0.115
-0.1475,0.095,0.1095
-0.1515,0.092,0.111
-0.1555,0.088,0.108
-0.152,0.0855,0.106
-0.158,0.0785,0.112
-0.1635,0.075,0.1115
-0.1655,0.0715,0.1125
-0.17,0.0645,0.1085
-0.175,0.0605,0.108
-0.18,0.0545,0.112
-0.1805,0.0475,0.107
-0.174,0.0455,0.1025
-0.177,0.0435,0.1025
-0.186,0.039,0.1005
-0.1825,0.0355,0.098
-0.183,0.033,0.094
-0.1855,0.0295,0.088
-0.1885,0.025,0.089
-0.196,0.022,0.0885
-0.203,0.019,0.087
-0.2065,0.015,0.0875
-0.2095,0.012,0.0845
-0.207,0.0115,0.0815
-0.2075,0.0085,0.078
-0.2155,0.0045,0.0825
-0.2125,0.0065,0.0865
-0.2165,0.006,0.0865
-0.2175,0.005,0.0875
-0.214,0.0075,0.088
-0.215,0.0065,0.089
-0.2125,0.005,0.086
-0.209,0.0045,0.0875
-0.206,0.0035,0.083
-0.2125,0.002,0.081
-0.211,0.0025,0.0845
-0.204,0.0045,0.0815
-0.2055,0.0015,0.0815
-0.2065,0.001,0.0815
-0.21,-0.0045,0.0825
-0.208,-0.0065,0.08
-0.2055,-0.002,0.0785
-0.206,-0.003,0.082
-0.203,-0.004,0.083
-0.2035,-0.0025,0.0825
-0.2105,-0.0015,0.086
-0.2185,-0.0035,0.087
-0.2215,-0.007,0.085
-0.2185,-0.0115,0.0805
-0.2185,-0.0145,0.0785
-0.2225,-0.022,0.081
-0.2195,-0.0245,0.082
-0.2085,-0.0205,0.081
-0.204,-0.0235,0.077
-0.202,-0.021,0.0765
-0.2005,-0.019,0.0755
-0.2,-0.022,0.07
-0.202,-0.0175,0.0705
-0.209,-0.0165,0.0705
-0.205,-0.0155,0.0705
-0.205,-0.0145,0.069
-0.2075,-0.015,0.069
-0.213,-0.0175,0.07
-0.2145,-0.0195,0.0685
-0.2085,-0.017,0.0695
-0.217,-0.0195,0.072
-0.2165,-0.02,0.0715
-0.217,-0.019,0.0685
-0.2165,-0.019,0.067
-0.218,-0.0175,0.0655
-0.22,-0.016,0.071
-0.2115,-0.0145,0.0745
-0.211,-0.0135,0.0755
-0.217,-0.0145,0.076
-0.2185,-0.0165,0.076
-0.2155,-0.015,0.076
-0.217,-0.011,0.075
-0.213,-0.0055,0.0755
-0.212,-0.006,0.0735
-0.2165,-0.012,0.0765
-0.22,-0.012,0.076
-0.218,-0.0115,0.0725
-0.216,-0.014,0.0775
-0.2165,-0.014,0.0785
-0.216,-0.0155,0.0765
-0.2205,-0.015,0.0775
-0.2175,-0.0145,0.077
-0.2165,-0.019,0.0785
-0.216,-0.018,0.08
-0.2145,-0.0155,0.0775
-0.217,-0.017,0.0745
-0.2085,-0.0175,0.076
-0.2075,-0.02,0.079
-0.2115,-0.0225,0.0775
-0.2085,-0.025,0.0795
-0.2045,-0.027,0.0775
-0.206,-0.0265,0.077
-0.2055,-0.024,0.078
-0.1985,-0.023,0.073
-0.1995,-0.027,0.073
-0.2035,-0.023,0.0735
-0.2085,-0.0205,0.073
-0.212,-0.018,0.0785
-0.2135,-0.016,0.079
-0.21,-0.015,0.08
-0.203,-0.0135,0.0805
-0.208,-0.015,0.078
-0.213,-0.0155,0.0785
-0.212,-0.0165,0.082
-0.2125,-0.017,0.085
-0.2185,-0.021,0.0855
-0.2195,-0.0245,0.0865
-0.2115,-0.0235,0.083
-0.213,-0.023,0.0845
-0.2215,-0.023,0.0875
-0.2195,-0.0245,0.0875
-0.2165,-0.0245,0.0865
-0.2175,-0.0245,0.084
-0.2155,-0.0235,0.0835
-0.2145,-0.021,0.081
-0.216,-0.0235,0.082
-0.2205,-0.0245,0.0835
-0.2205,-0.02,0.087
-0.217,-0.023,0.089
-0.215,-0.0275,0.0895
-0.215,-0.029,0.0915
-0.215,-0.025,0.089
-0.211,-0.025,0.0905
-0.2105,-0.0315,0.0935
-0.2065,-0.0295,0.0925
-0.2135,-0.034,0.0915
-0.2145,-0.0355,0.092
-0.2045,-0.031,0.0915
-0.2025,-0.029,0.0965
-0.201,-0.0235,0.102
-0.2025,-0.0235,0.098
-0.199,-0.0265,0.0935
-0.202,-0.026,0.091
-0.208,-0.0265,0.088
-0.2075,-0.027,0.0865
-0.2075,-0.0275,0.09
-0.207,-0.0225,0.095
-0.2035,-0.019,0.091
-0.2,-0.026,0.092
-0.198,-0.0255,0.094
-0.203,-0.021,0.092
-0.2095,-0.022,0.0905
-0.206,-0.022,0.09
-0.204,-0.024,0.095
-0.2075,-0.0255,0.0935
-0.2085,-0.024,0.092
-0.212,-0.0255,0.0935
-0.211,-0.0295,0.091
-0.2115,-0.033,0.0925
-0.2095,-0.033,0.092
-0.206,-0.035,0.0875
-0.2085,-0.0365,0.086
-0.205,-0.033,0.087
-0.209,-0.035,0.09
-0.2105,-0.0325,0.091
-0.208,-0.03,0.0935
-0.208,-0.032,0.094
-0.2055,-0.0285,0.096
-0.2085,-0.031,0.0945
-0.2045,-0.0335,0.091
-0.206,-0.032,0.0935
-0.21,-0.032,0.094
-0.2065,-0.03,0.095
-0.2095,-0.031,0.098
-0.2075,-0.031,0.095
-0.2075,-0.029,0.0915
-0.2135,-0.0315,0.0985
-0.2105,-0.0305,0.101
-0.2075,-0.0285,0.099
-0.2135,-0.0295,0.1005
-0.212,-0.029,0.097
-0.2095,-0.03,0.0915
-0.2085,-0.032,0.0945
-0.204,-0.0335,0.094
-0.209,-0.0345,0.0935
-0.21,-0.0345,0.0945
-0.2075,-0.0345,0.095
-0.215,-0.0335,0.0955
-0.2075,-0.0305,0.0905
-0.2005,-0.0285,0.0925
-0.2055,-0.0285,0.0965
-0.1975,-0.0255,0.0945
-0.2025,-0.0305,0.097
-0.205,-0.031,0.1025
-0.1995,-0.028,0.1
-0.197,-0.03,0.094
-0.199,-0.03,0.0965
-0.2035,-0.032,0.1
-0.1965,-0.029,0.0995
-0.1945,-0.0245,0.0995
-0.1885,-0.024,0.1005
-0.1925,-0.0245,0.098
-0.203,-0.0255,0.097
-0.2,-0.023,0.105
-0.2005,-0.025,0.1095
-0.201,-0.027,0.109
-0.2085,-0.0255,0.1095
-0.217,-0.03,0.1085
-0.21,-0.027,0.1035
-0.2075,-0.027,0.101
-0.2065,-0.03,0.1015
-0.206,-0.0295,0.103
-0.2055,-0.0305,0.1055
-0.205,-0.0335,0.1065
-0.204,-0.0345,0.1035
-0.196,-0.029,0.099
-0.2025,-0.0315,0.099
-0.2025,-0.033,0.0985
-0.1995,-0.0315,0.0985
-0.205,-0.0315,0.0965
-0.203,-0.028,0.099
-0.21,-0.031,0.095
-0.209,-0.027,0.0905
-0.1995,-0.023,0.095
-0.196,-0.023,0.0945
-0.197,-0.021,0.0935
-0.1935,-0.023,0.096
-0.195,-0.0265,0.095
-0.1965,-0.0265,0.09
-0.192,-0.025,0.091
-0.2005,-0.026,0.0925
-0.2,-0.0235,0.0925
-0.1915,-0.0235,0.0955
-0.184,-0.025,0.092
-0.185,-0.0255,0.0895
-0.1905,-0.027,0.0895
-0.191,-0.029,0.089
-0.1935,-0.0285,0.0915
-0.1905,-0.0285,0.0905
-0.1945,-0.0345,0.09
-0.1945,-0.0355,0.0925
-0.1905,-0.0355,0.09
-0.188,-0.0365,0.0895
-0.184,-0.031,0.0915
-0.1855,-0.029,0.0915
-0.185,-0.0265,0.0915
-0.191,-0.029,0.092
-0.1965,-0.032,0.0925
-0.1975,-0.028,0.0895
-0.198,-0.029,0.086
-0.199,-0.031,0.089
-0.199,-0.032,0.0915
-0.191,-0.0295,0.089
-0.192,-0.03,0.088
-0.195,-0.03,0.0865
-0.192,-0.0305,0.086
-0.1925,-0.0315,0.089
-0.196,-0.0325,0.0895
-0.202,-0.0345,0.092
-0.2005,-0.0325,0.09
-0.197,-0.032,0.089
-0.1975,-0.0315,0.091
-0.198,-0.03,0.0875
-0.195,-0.026,0.09
-0.1905,-0.0255,0.0925
-0.1945,-0.029,0.0925
-0.198,-0.029,0.09
-0.2015,-0.031,0.0885
-0.199,-0.0315,0.0865
-0.1935,-0.029,0.0845
-0.2,-0.032,0.0885
-0.209,-0.037,0.0915
-0.2145,-0.0365,0.0915
-0.209,-0.034,0.093
-0.205,-0.0345,0.091
-0.202,-0.033,0.089
-0.1945,-0.032,0.0885
-0.1985,-0.0355,0.0855
-0.2025,-0.04,0.0835
-0.199,-0.038,0.084
-0.198,-0.0365,0.086
-0.2025,-0.0405,0.087
-0.2055,-0.042,0.0825
-0.201,-0.0415,0.0825
-0.1995,-0.04,0.0875
-0.2005,-0.0425,0.082
-0.201,-0.0425,0.079
-0.204,-0.043,0.079
-0.199,-0.0435,0.0745
-0.2005,-0.043,0.0845
-0.2095,-0.045,0.0905
-0.212,-0.044,0.087
-0.21,-0.0425,0.085
-0.217,-0.044,0.087
-0.2215,-0.045,0.0925
-0.213,-0.038,0.091
-0.2115,-0.037,0.0895
-0.2105,-0.037,0.0925
-0.2175,-0.037,0.095
-0.217,-0.039,0.092
-0.214,-0.0405,0.09
-0.211,-0.041,0.0875
-0.197,-0.0365,0.0815
-0.195,-0.0375,0.079
-0.193,-0.0375,0.0825
-0.1965,-0.038,0.085
-0.2005,-0.0375,0.0875
-0.197,-0.0345,0.0905
-0.1895,-0.0345,0.0855
-0.1875,-0.036,0.082
-0.1995,-0.04,0.081
-0.201,-0.039,0.083
-0.1965,-0.038,0.084
-0.1955,-0.037,0.087
-0.1975,-0.038,0.086
-0.2105,-0.039,0.0845
-0.2175,-0.039,0.084
-0.2075,-0.038,0.0825
-0.2055,-0.0375,0.085
-0.2105,-0.0415,0.083
-0.2025,-0.038,0.083
-0.198,-0.036,0.083
-0.206,-0.041,0.082
-0.209,-0.041,0.0845
-0.2005,-0.041,0.0845
-0.2005,-0.044,0.085
-0.2035,-0.04,0.084
-0.2045,-0.0395,0.0865
-0.2065,-0.042,0.084
-0.205,-0.037,0.086
-0.204,-0.035,0.0855
-0.204,-0.036,0.0845
-0.2015,-0.0355,0.09
-0.1975,-0.032,0.089
-0.2005,-0.0335,0.09
-0.203,-0.038,0.0905
-0.2015,-0.039,0.093
-0.1955,-0.035,0.093
-0.2005,-0.032,0.0905
-0.205,-0.0365,0.093
-0.193,-0.0395,0.091
-0.1915,-0.0385,0.0895
-0.193,-0.039,0.09
-0.1955,-0.041,0.0895
-0.1945,-0.0425,0.091
-0.1885,-0.041,0.0885
-0.1885,-0.0395,0.086
-0.1915,-0.039,0.087
-0.1915,-0.04,0.0885
-0.1865,-0.0395,0.088
-0.179,-0.035,0.0855
-0.18,-0.0345,0.0865
-0.189,-0.035,0.0915
-0.1905,-0.0345,0.091
-0.1895,-0.0315,0.085
-0.1925,-0.032,0.087
-0.195,-0.033,0.089
-0.191,-0.03,0.0895
-0.1935,-0.031,0.0895
-0.198,-0.034,0.0915
-0.19,-0.033,0.0935
-0.1885,-0.032,0.089
-0.188,-0.035,0.089
-0.19,-0.037,0.09
-0.1905,-0.0385,0.0835
-0.191,-0.0395,0.082
-0.193,-0.0395,0.084
-0.1965,-0.042,0.0825
-0.1945,-0.038,0.087
-0.187,-0.034,0.0915
-0.195,-0.038,0.088
-0.194,-0.038,0.0855
-0.1925,-0.0395,0.088
-0.1915,-0.037,0.0915
-0.1845,-0.037,0.0875
-0.189,-0.0415,0.0865
-0.19,-0.0395,0.0865
-0.184,-0.0355,0.082
-0.187,-0.0365,0.0885
-0.1945,-0.0375,0.092
-0.186,-0.0355,0.0865
-0.185,-0.035,0.083
-0.1875,-0.033,0.0815
-0.186,-0.0345,0.0835
-0.189,-0.0365,0.0865
-0.1905,-0.036,0.089
-0.1895,-0.0365,0.0895
-0.1885,-0.0365,0.0855
-0.188,-0.037,0.0845
-0.1875,-0.0375,0.084
-0.1935,-0.0415,0.084
-0.1995,-0.043,0.082
-0.1965,-0.04,0.075
-0.1985,-0.0405,0.0805
-0.1965,-0.04,0.0875
-0.1905,-0.039,0.0815
-0.199,-0.043,0.082
-0.1965,-0.0435,0.0855
-0.1985,-0.0425,0.087
-0.2045,-0.0445,0.0885
-0.199,-0.043,0.09
-0.1915,-0.0415,0.0895
-0.19,-0.042,0.0885
-0.1905,-0.0395,0.0915
-0.187,-0.037,0.09
-0.1885,-0.038,0.0915
-0.186,-0.034,0.0955
-0.1825,-0.0315,0.097
-0.1765,-0.033,0.103
-0.1745,-0.033,0.1025
-0.1775,-0.0315,0.1005
-0.18,-0.0285,0.1055
-0.1855,-0.027,0.1095
-0.1865,-0.025,0.1065
-0.1885,-0.026,0.102
-0.1865,-0.023,0.095
-0.181,-0.0165,0.0875
-0.1765,-0.015,0.091
-0.174,-0.012,0.09
-0.179,-0.0105,0.088
-0.178,-0.012,0.087
-0.172,-0.005,0.08
-0.171,0.0005,0.0765
-0.168,0.001,0.077
-0.164,0.0025,0.079
-0.1665,0.0005,0.0825
-0.1595,0.007,0.0845
-0.158,0.009,0.0885
-0.163,0.0055,0.0935
-0.1525,0.005,0.0975
-0.1495,0.005,0.1
-0.1485,0.007,0.103
-0.1465,0.007,0.109
-0.144,0.016,0.109
-0.1375,0.0255,0.1115
-0.1315,0.0265,0.118
-0.1315,0.0295,0.12
-0.1315,0.0315,0.119
-0.132,0.031,0.1175
-0.138,0.035,0.117
-0.131,0.0375,0.1145
-0.121,0.0405,0.111
-0.125,0.0425,0.1095
-0.133,0.046,0.1085
-0.129,0.054,0.1095
-0.122,0.055,0.1115
-0.1195,0.0615,0.1085
-0.1185,0.073,0.1125
-0.1105,0.075,0.115
-0.1065,0.0735,0.1135
-0.105,0.0765,0.1135
-0.1,0.082,0.112
-0.1045,0.079,0.12
-0.0995,0.0775,0.123
-0.0985,0.0785,0.119
-0.101,0.0785,0.121
-0.0895,0.079,0.123
-0.087,0.078,0.1265
-0.097,0.079,0.1255
-0.102,0.0725,0.1195
-0.1015,0.0645,0.1155
-0.1,0.0585,0.112
-0.103,0.052,0.1125
-0.1025,0.0495,0.114
-0.0985,0.0485,0.112
-0.102,0.043,0.1145
-0.101,0.041,0.117
-0.104,0.0365,0.1155
-0.1095,0.03,0.1135
-0.103,0.032,0.1135
-0.104,0.0305,0.12
-0.11,0.029,0.1215
-0.116,0.0245,0.1265
-0.1205,0.0215,0.138
-0.122,0.0245,0.1395
-0.125,0.0195,0.131
-0.125,0.02,0.1255
-0.1255,0.0215,0.121
-0.1275,0.016,0.113
-0.134,0.0145,0.116
-0.1315,0.015,0.1135
-0.124,0.012,0.109
-0.1255,0.0155,0.1065
-0.127,0.021,0.1015
-0.128,0.02,0.1025
-0.128,0.0165,0.1015
-0.123,0.021,0.1
-0.121,0.0255,0.0885
-0.123,0.0195,0.077
-0.1255,0.016,0.076
-0.128,0.0165,0.073
-0.122,0.0195,0.074
-0.1185,0.0165,0.082
-0.121,0.014,0.079
-0.1255,0.009,0.071
-0.127,0.007,0.076
-0.1265,0.013,0.0775
-0.1255,0.0145,0.0795
-0.128,0.0175,0.0875
-0.1375,0.0155,0.098
-0.1435,0.011,0.1035
-0.1515,0.007,0.104
-0.1635,0.001,0.1115
-0.1765,-0.01,0.107
-0.184,-0.022,0.1045
-0.1875,-0.0255,0.106
-0.1855,-0.028,0.098
-0.1905,-0.0335,0.0925
-0.1975,-0.0395,0.0885
-0.201,-0.045,0.086
-0.2065,-0.0445,0.0805
-0.2065,-0.048,0.081
-0.2115,-0.0525,0.0845
-0.2205,-0.0495,0.081
-0.2265,-0.0525,0.075
-0.228,-0.0545,0.0715
-0.225,-0.054,0.077
-0.2235,-0.0525,0.078
-0.224,-0.0515,0.0745
-0.222,-0.0545,0.0745
-0.221,-0.056,0.073
-0.2275,-0.058,0.0735
-0.2235,-0.056,0.0725
-0.2185,-0.053,0.069
-0.224,-0.057,0.0635
-0.225,-0.0555,0.0645
-0.2285,-0.0505,0.065
-0.234,-0.0515,0.0645
-0.2355,-0.056,0.061
-0.2345,-0.058,0.057
-0.236,-0.055,0.064
-0.228,-0.0505,0.067
-0.224,-0.051,0.0695
-0.2285,-0.0495,0.066
-0.2295,-0.049,0.071
-0.2315,-0.054,0.073
-0.236,-0.0565,0.067
-0.2325,-0.0545,0.071
-0.228,-0.054,0.0735
-0.2335,-0.057,0.0755
-0.2295,-0.0555,0.072
-0.2335,-0.057,0.0715
-0.237,-0.0575,0.0755
-0.2355,-0.06,0.074
-0.2425,-0.0645,0.0725
-0.241,-0.068,0.069
-0.242,-0.07,0.067
-0.242,-0.0695,0.067
-0.239,-0.0725,0.067
-0.2455,-0.073,0.067
-0.2495,-0.069,0.068
-0.2485,-0.0665,0.069
-0.252,-0.072,0.07
-0.255,-0.073,0.074
-0.254,-0.071,0.074
-0.25,-0.071,0.0715
-0.2465,-0.0685,0.0705
-0.2425,-0.0645,0.071
-0.24,-0.0625,0.072
-0.245,-0.0655,0.069
-0.2405,-0.0645,0.0665
-0.2335,-0.061,0.071
-0.232,-0.0635,0.0755
-0.236,-0.0655,0.072
-0.2425,-0.064,0.0725
-0.246,-0.0685,0.071
-0.254,-0.071,0.0705
-0.2495,-0.068,0.0715
-0.243,-0.0675,0.075
-0.2435,-0.0675,0.0785
-0.2475,-0.068,0.0765
-0.251,-0.0695,0.078
-0.25,-0.068,0.077
-0.2545,-0.069,0.0795
-0.2505,-0.0685,0.0805
-0.2465,-0.066,0.08
-0.2535,-0.0695,0.084
-0.248,-0.0675,0.0815
-0.246,-0.064,0.084
-0.254,-0.0645,0.0825
-0.248,-0.063,0.077
-0.25,-0.0655,0.073
-0.254,-0.065,0.073
-0.2435,-0.059,0.0775
-0.241,-0.0575,0.078
-0.245,-0.057,0.0795
-0.2455,-0.052,0.081
-0.249,-0.0515,0.079
-0.2445,-0.0525,0.075
-0.237,-0.05,0.0775
-0.2375,-0.0495,0.079
-0.236,-0.051,0.0785
-0.2355,-0.0535,0.08
-0.2305,-0.056,0.08
-0.227,-0.056,0.078
-0.235,-0.0545,0.0785
-0.244,-0.0525,0.079
-0.241,-0.05,0.077
-0.24,-0.051,0.0845
-0.242,-0.045,0.086
-0.2405,-0.0415,0.083
-0.2415,-0.046,0.0775
-0.24,-0.048,0.073
-0.2435,-0.0545,0.075
-0.2505,-0.063,0.0675
-0.253,-0.068,0.0665
-0.257,-0.081,0.0615
-0.268,-0.1025,0.0445
-0.2755,-0.1205,0.0325
-0.273,-0.1405,0.0125
-0.276,-0.1625,-0.0085
-0.2805,-0.179,-0.0175
-0.2835,-0.1895,-0.0215
-0.2785,-0.19,-0.027
-0.2725,-0.1915,-0.033
-0.2735,-0.195,-0.034
-0.27,-0.192,-0.0375
-0.264,-0.184,-0.0465
-0.2455,-0.1595,-0.0465
-0.219,-0.117,-0.0545
-0.201,-0.088,-0.0685
-0.183,-0.059,-0.0645
-0.161,-0.0105,-0.0525
-0.1515,0.027,-0.041
-0.1365,0.078,-0.0275
-0.1075,0.146,-0.0065
-0.084,0.2035,0.011
-0.061,0.2595,0.0265
-0.0425,0.3135,0.0515
-0.0155,0.3855,0.0895
0.02,0.4695,0.149
0.052,0.5595,0.2045
0.076,0.6355,0.2585
0.079,0.68,0.3335
0.0955,0.763,0.408
0.113,0.8415,0.4825
0.11,0.883,0.544
0.1195,0.943,0.5725
0.1335,1.0125,0.5965
0.141,1.076,0.627
0.134,1.111,0.6525
0.119,1.14,0.6465
0.0935,1.1515,0.6425
0.0555,1.1,0.6365
0.0225,1.027,0.603
-0.001,0.956,0.5525
-0.029,0.845,0.4485
-0.097,0.691,0.361
-0.1775,0.498,0.327
-0.237,0.291,0.303
-0.327,0.0395,0.29
-0.402,-0.2095,0.2635
-0.448,-0.3895,0.244
-0.4785,-0.509,0.2265
-0.4725,-0.53,0.199
-0.469,-0.5265,0.1645
-0.464,-0.5355,0.1215
-0.461,-0.5345,0.0915
-0.462,-0.5265,0.06
-0.4665,-0.52,0.026
-0.466,-0.517,-0.0055
-0.463,-0.511,-0.023
-0.456,-0.4865,-0.021
-0.45,-0.463,-0.0165
-0.4405,-0.4405,-0.0135
-0.4155,-0.399,-0.0065
-0.3935,-0.3625,0.0025
-0.3895,-0.3415,0.016
-0.3805,-0.314,0.0325
-0.357,-0.2745,0.0355
-0.339,-0.235,0.0405
-0.315,-0.1995,0.057
-0.2975,-0.1785,0.065
-0.284,-0.1595,0.0655
-0.273,-0.1405,0.063
-0.2635,-0.1245,0.063
-0.256,-0.1095,0.0655
-0.2495,-0.101,0.0705
-0.2365,-0.088,0.075
-0.2275,-0.0765,0.0825
-0.2245,-0.07,0.0975
-0.224,-0.066,0.1045
-0.218,-0.064,0.106
-0.222,-0.0635,0.111
-0.22,-0.06,0.117
-0.214,-0.054,0.115
-0.2205,-0.0495,0.114
-0.2235,-0.0495,0.1175
-0.221,-0.0495,0.118
-0.217,-0.047,0.1195
-0.2225,-0.047,0.1205
-0.2225,-0.047,0.1235
-0.2175,-0.046,0.1215
-0.219,-0.0455,0.1185
-0.221,-0.047,0.1195
-0.217,-0.046,0.1205
-0.2115,-0.0465,0.121
-0.209,-0.045,0.1175
-0.207,-0.0415,0.1155
-0.2065,-0.04,0.1135
-0.205,-0.039,0.109
-0.2065,-0.04,0.108
-0.204,-0.0385,0.106
-0.2025,-0.035,0.109
-0.208,-0.0345,0.113
-0.2085,-0.037,0.1125
-0.202,-0.0365,0.1115
-0.202,-0.0365,0.1105
-0.2045,-0.0365,0.113
-0.2075,-0.036,0.1135
-0.213,-0.036,0.1145
-0.2135,-0.0365,0.116
-0.2115,-0.037,0.12
-0.2065,-0.036,0.1185
-0.212,-0.0385,0.112
-0.214,-0.0375,0.111
-0.207,-0.0375,0.1115
-0.2,-0.037,0.1165
-0.195,-0.0355,0.124
-0.1965,-0.0345,0.1255
-0.199,-0.0335,0.1205
-0.2035,-0.0375,0.1175
-0.1955,-0.034,0.1175
-0.1935,-0.0325,0.111
-0.202,-0.034,0.1165
-0.199,-0.033,0.1195
-0.202,-0.0355,0.1145
-0.2135,-0.035,0.118
-0.211,-0.0315,0.116
-0.201,-0.0275,0.1185
-0.1995,-0.0275,0.1175
-0.1905,-0.024,0.117
-0.1875,-0.023,0.123
-0.1955,-0.024,0.123
-0.191,-0.021,0.1215
-0.19,-0.0215,0.118
-0.199,-0.0215,0.12
-0.201,-0.0215,0.1145
-0.192,-0.02,0.1145
-0.194,-0.0235,0.12
-0.189,-0.027,0.113
-0.1765,-0.02,0.1115
-0.174,-0.017,0.112
-0.1785,-0.017,0.113
-0.196,-0.0185,0.1145
-0.1955,-0.0185,0.1155
-0.189,-0.0125,0.1175
-0.19,-0.0095,0.1175
-0.185,-0.009,0.1235
-0.1865,-0.0115,0.1255
-0.192,-0.015,0.1185
-0.1925,-0.015,0.1165
-0.183,-0.0115,0.1275
-0.1825,-0.013,0.132
-0.188,-0.021,0.1185
-0.1855,-0.021,0.111
-0.1835,-0.018,0.112
-0.1835,-0.0175,0.113
-0.184,-0.0165,0.111
-0.1805,-0.0145,0.1105
-0.177,-0.0135,0.1105
-0.181,-0.012,0.109
-0.186,-0.0115,0.1085
-0.1835,-0.0125,0.1105
-0.1855,-0.014,0.1145
-0.1865,-0.0115,0.112
-0.1875,-0.0105,0.114
-0.1925,-0.0115,0.1165
-0.179,-0.0045,0.106
-0.171,-0.004,0.105
-0.1755,-0.007,0.1125
-0.1815,-0.007,0.114
-0.1795,-0.003,0.113
-0.1745,-0.0015,0.114
-0.1795,-0.0035,0.122
-0.176,-0.0005,0.1225
-0.1715,-0.001,0.121
-0.169,-0.0035,0.118
-0.1715,-0.004,0.1145
-0.17,-0.0005,0.116
-0.1685,0.0005,0.112
-0.1685,0.0005,0.1115
-0.17,-0.0025,0.1115
-0.174,-0.006,0.11
-0.176,-0.0075,0.1055
-0.1755,-0.0075,0.1065
-0.1665,-0.002,0.1125
-0.1715,-0.0045,0.112
-0.17,-0.005,0.1145
-0.1705,-0.005,0.1145
-0.1745,-0.0075,0.1175
-0.158,-0.002,0.119
-0.1615,-0.003,0.1165
-0.1665,-0.0025,0.1195
-0.16,-0.0035,0.1225
-0.16,-0.0075,0.1195
-0.158,-0.0075,0.122
-0.1545,-0.01,0.126
-0.1545,-0.006,0.1215
-0.159,-0.006,0.1165
-0.157,-0.008,0.113
-0.157,-0.0055,0.1105
-0.153,-0.0005,0.1105
-0.145,0.007,0.1185
-0.1485,0.0035,0.115
-0.1565,0.0005,0.1125
-0.153,0.003,0.1155
-0.1475,0.0025,0.1135
-0.1415,0.0055,0.1185
-0.1355,0.0075,0.1225
-0.144,0.007,0.1255
-0.1465,0.01,0.131
-0.1495,0.01,0.131
-0.153,0.01,0.124
-0.154,0.0125,0.123
-0.1555,0.0145,0.1245
-0.149,0.018,0.1235
-0.1415,0.02,0.12
-0.1475,0.0195,0.118
-0.1535,0.0205,0.1175
-0.1435,0.022,0.115
-0.138,0.022,0.109
-0.135,0.0205,0.111
-0.134,0.02,0.113
-0.134,0.021,0.114
-0.143,0.0175,0.121
-0.1455,0.017,0.1205
-0.1425,0.0195,0.119
-0.1465,0.0155,0.1155
-0.1435,0.014,0.111
-0.1505,0.0155,0.1135
-0.1565,0.0165,0.1125
-0.1505,0.0185,0.111
-0.148,0.0195,0.1115
-0.153,0.0225,0.1115
-0.148,0.0255,0.111
-0.137,0.028,0.1125
-0.135,0.025,0.117
-0.1405,0.0245,0.116
-0.1395,0.0345,0.1155
-0.1295,0.0385,0.113
-0.1295,0.038,0.1115
-0.1305,0.0385,0.11
-0.134,0.038,0.11
-0.134,0.0375,0.114
-0.138,0.037,0.1155
-0.1415,0.037,0.118
-0.137,0.0385,0.1175
-0.1335,0.0395,0.119
-0.129,0.04,0.1165
-0.136,0.042,0.115
-0.131,0.041,0.121
-0.119,0.0455,0.1245
-0.12,0.0495,0.1285
-0.1225,0.0465,0.127
-0.117,0.0465,0.124
-0.1125,0.0455,0.125
-0.1125,0.0415,0.129
-0.112,0.0415,0.1315
-0.1185,0.045,0.132
-0.1115,0.0485,0.129
-0.104,0.05,0.123
-0.102,0.055,0.128
-0.099,0.0595,0.128
-0.1015,0.0615,0.121
-0.1005,0.0645,0.1245
-0.105,0.0655,0.126
-0.111,0.0655,0.1225
-0.11,0.0695,0.1255
-0.105,0.07,0.1295
-0.107,0.067,0.127
-0.107,0.0705,0.135
-0.106,0.0725,0.143
-0.1025,0.074,0.139
-0.092,0.0805,0.1365
-0.098,0.081,0.1355
-0.1005,0.0815,0.1345
-0.0935,0.0815,0.135
-0.089,0.083,0.137
-0.089,0.087,0.138
-0.0865,0.0865,0.1365
-0.082,0.089,0.135
-0.0815,0.093,0.136
-0.081,0.0955,0.1305
-0.0835,0.0975,0.129
-0.087,0.097,0.13
-0.087,0.0995,0.1245
-0.0875,0.099,0.1265
-0.0855,0.0995,0.128
-0.0805,0.1025,0.131
-0.084,0.1005,0.135
-0.077,0.108,0.1315
-0.069,0.1125,0.136
-0.074,0.1085,0.1415
-0.0715,0.108,0.1425
-0.0675,0.1085,0.144
-0.0675,0.108,0.142
-0.06,0.115,0.144
-0.0515,0.123,0.145
-0.0545,0.1235,0.143
-0.0585,0.128,0.1425
-0.06,0.1295,0.1425
-0.0575,0.131,0.143
-0.0495,0.1365,0.142
-0.0435,0.1415,0.14
-0.0365,0.144,0.139
-0.043,0.144,0.143
-0.055,0.144,0.147
-0.0485,0.1425,0.1465
-0.0375,0.149,0.1435
-0.0395,0.1545,0.146
-0.044,0.154,0.1515
-0.0465,0.1525,0.154
-0.0545,0.1485,0.1525
-0.0545,0.1495,0.1505
-0.052,0.1495,0.1515
-0.0505,0.1495,0.149
-0.0415,0.154,0.1485
-0.0365,0.157,0.1465
-0.0395,0.1575,0.147
-0.0355,0.157,0.145
-0.03,0.16,0.149
-0.0355,0.1615,0.159
-0.0365,0.1595,0.153
-0.0365,0.16,0.1525
-0.0345,0.162,0.156
-0.033,0.161,0.154
-0.04,0.153,0.154
-0.042,0.154,0.153
-0.043,0.1565,0.153
-0.0475,0.1595,0.1585
-0.052,0.162,0.16
-0.05,0.162,0.157
-0.0555,0.1615,0.1565
-0.0555,0.161,0.152
-0.053,0.161,0.1525
-0.062,0.1535,0.1545
-0.061,0.1535,0.156
-0.063,0.1535,0.1525
-0.0615,0.1515,0.151
-0.064,0.147,0.154
-0.0705,0.143,0.148
-0.077,0.1385,0.1495
-0.083,0.128,0.145
-0.082,0.1215,0.1395
-0.087,0.1155,0.141
-0.087,0.1115,0.137
-0.0925,0.1075,0.1335
-0.0945,0.103,0.135
-0.0935,0.0985,0.139
-0.0985,0.094,0.139
-0.1015,0.089,0.1385
-0.102,0.0825,0.1335
-0.104,0.0805,0.1325
-0.1065,0.077,0.128
-0.1105,0.0725,0.122
-0.1205,0.069,0.1245
-0.1265,0.065,0.119
-0.1325,0.059,0.1235
-0.1355,0.05,0.118
-0.1315,0.0475,0.111
-0.132,0.048,0.117
-0.137,0.0465,0.109
-0.142,0.0415,0.106
-0.145,0.0345,0.104
-0.152,0.027,0.104
-0.157,0.0235,0.1065
-0.1575,0.02,0.098
-0.163,0.015,0.099
-0.166,0.0135,0.1045
-0.1675,0.0095,0.104
-0.165,0.0075,0.1025
-0.1665,0.0065,0.101
-0.1695,0.0,0.104
-0.1635,-0.0025,0.103
-0.167,-0.005,0.1
-0.175,-0.008,0.1005
-0.173,-0.009,0.098
-0.1705,-0.012,0.0985
-0.1735,-0.0125,0.099
-0.1745,-0.0155,0.095
-0.178,-0.0175,0.09
-0.182,-0.017,0.09
-0.173,-0.0145,0.094
-0.1735,-0.0145,0.0865
-0.186,-0.0185,0.0845
-0.189,-0.0185,0.09
-0.19,-0.0195,0.0935
-0.1855,-0.0205,0.091
-0.176,-0.023,0.092
-0.1835,-0.023,0.094
-0.185,-0.021,0.093
-0.1795,-0.0235,0.0905
-0.184,-0.0245,0.0865
-0.1825,-0.025,0.0925
-0.1885,-0.0285,0.089
-0.194,-0.0325,0.0855
-0.195,-0.0365,0.0885
-0.194,-0.035,0.0855
-0.194,-0.0365,0.084
-0.1915,-0.0415,0.078
-0.19,-0.044,0.0795
-0.191,-0.045,0.077
-0.1845,-0.049,0.0765
-0.1805,-0.051,0.0785
-0.1865,-0.0515,0.08
-0.186,-0.051,0.0825
-0.192,-0.047,0.08
-0.205,-0.05,0.0805
-0.192,-0.0465,0.0755
-0.188,-0.0435,0.078
-0.1935,-0.046,0.08
-0.1875,-0.0465,0.076
-0.1895,-0.0485,0.08
-0.187,-0.0485,0.0835
-0.1805,-0.047,0.0825
-0.1815,-0.048,0.077
-0.181,-0.049,0.08
-0.185,-0.05,0.0815
-0.1915,-0.0515,0.075
-0.185,-0.0485,0.075
-0.1835,-0.0465,0.076
-0.192,-0.048,0.0735
-0.185,-0.048,0.071
-0.173,-0.048,0.076
-0.18,-0.0495,0.0785
-0.193,-0.0535,0.0695
-0.188,-0.054,0.067
-0.181,-0.0505,0.073
-0.1815,-0.051,0.077
-0.176,-0.048,0.072
-0.172,-0.046,0.0725
-0.1705,-0.049,0.072
-0.1715,-0.048,0.0695
-0.1795,-0.0505,0.0775
-0.1755,-0.05,0.07
-0.175,-0.046,0.074
-0.1805,-0.0435,0.08
-0.1775,-0.043,0.074
-0.1785,-0.043,0.074
-0.1705,-0.0455,0.071
-0.163,-0.0475,0.0715
-0.167,-0.047,0.0675
-0.1715,-0.05,0.0725
-0.178,-0.053,0.073
-0.1765,-0.0535,0.07
-0.173,-0.052,0.074
-0.1765,-0.0545,0.0705
-0.1795,-0.0555,0.0735
-0.181,-0.0535,0.074
-0.177,-0.0505,0.073
-0.173,-0.05,0.0755
-0.1725,-0.051,0.0735
-0.1705,-0.049,0.0735
-0.1665,-0.0505,0.0745
-0.1665,-0.0535,0.0715
-0.168,-0.06,0.07
-0.1615,-0.0625,0.073
-0.1625,-0.0625,0.0735
-0.1665,-0.063,0.07
-0.168,-0.06,0.0735
-0.1735,-0.0575,0.074
-0.173,-0.057,0.0675
-0.173,-0.056,0.067
-0.171,-0.057,0.066
-0.1695,-0.061,0.067
-0.173,-0.0625,0.0695
-0.1725,-0.0615,0.069
-0.1685,-0.061,0.0725
-0.163,-0.058,0.0775
-0.1645,-0.0555,0.0745
-0.165,-0.0545,0.071
-0.1535,-0.0535,0.074
-0.1545,-0.058,0.0735
-0.164,-0.062,0.072
-0.175,-0.0655,0.0755
-0.175,-0.061,0.0765
-0.173,-0.0565,0.076
-0.1795,-0.062,0.0805
-0.182,-0.0635,0.081
-0.179,-0.0635,0.0775
-0.173,-0.063,0.0785
-0.1735,-0.0655,0.076
-0.174,-0.063,0.0755
-0.176,-0.0615,0.0805
-0.176,-0.0625,0.0775
-0.1725,-0.062,0.0775
-0.1775,-0.0645,0.077
-0.1805,-0.0615,0.0755
-0.1825,-0.0605,0.08
-0.1845,-0.062,0.079
-0.18,-0.063,0.077
-0.178,-0.0665,0.079
-0.1785,-0.07,0.0715
-0.1755,-0.066,0.0695
-0.174,-0.0635,0.074
-0.1725,-0.064,0.0685
-0.168,-0.063,0.066
-0.173,-0.0665,0.066
-0.175,-0.0655,0.069
-0.1685,-0.063,0.072
-0.168,-0.0605,0.0685
-0.1725,-0.061,0.0675
-0.1625,-0.0605,0.0725
-0.158,-0.0605,0.076
-0.168,-0.066,0.072
-0.161,-0.062,0.073
-0.162,-0.0625,0.0775
-0.164,-0.068,0.0755
-0.1675,-0.0665,0.0755
-0.1765,-0.063,0.0795
-0.1655,-0.0575,0.0875
-0.1615,-0.057,0.087
-0.167,-0.059,0.086
-0.1685,-0.0595,0.086
-0.169,-0.0585,0.084
-0.163,-0.0565,0.084
-0.158,-0.054,0.084
-0.1565,-0.057,0.086
-0.1565,-0.0595,0.084
-0.158,-0.057,0.084
-0.162,-0.057,0.083
-0.161,-0.0565,0.0805
-0.1585,-0.0565,0.081
-0.1625,-0.0585,0.084
-0.166,-0.0595,0.088
-0.17,-0.0605,0.0865
-0.171,-0.058,0.0895
-0.1705,-0.0595,0.0865
-0.171,-0.0605,0.0835
-0.1725,-0.0575,0.0875
-0.173,-0.06,0.0875
-0.169,-0.057,0.0855
-0.1655,-0.0525,0.083
-0.1575,-0.0495,0.089
-0.1525,-0.044,0.0905
-0.1625,-0.0465,0.0915
-0.165,-0.047,0.0945
-0.1655,-0.047,0.0955
-0.1735,-0.05,0.097
-0.1685,-0.044,0.097
-0.167,-0.042,0.1015
-0.1655,-0.0455,0.102
-0.159,-0.0485,0.0965
-0.1645,-0.052,0.094
-0.1665,-0.0505,0.102
-0.1545,-0.047,0.098
-0.1595,-0.047,0.086
-0.169,-0.0465,0.09
-0.1735,-0.0395,0.096
-0.187,-0.0405,0.096
-0.189,-0.0475,0.089
-0.184,-0.05,0.0915
-0.184,-0.0535,0.0925
-0.187,-0.0535,0.0895
-0.188,-0.0505,0.0905
-0.182,-0.0475,0.093
-0.1725,-0.045,0.091
-0.168,-0.0475,0.0885
-0.1725,-0.0475,0.0925
-0.1785,-0.0495,0.0925
-0.175,-0.0535,0.09
-0.176,-0.055,0.089
-0.1795,-0.0515,0.088
-0.177,-0.049,0.0885
-0.173,-0.0455,0.0925
-0.1645,-0.0395,0.093
-0.1725,-0.0435,0.0915
-0.1835,-0.0485,0.0885
-0.1745,-0.046,0.082
-0.1805,-0.044,0.0885
-0.191,-0.047,0.099
-0.192,-0.0475,0.0935
-0.1905,-0.0465,0.0915
-0.1885,-0.046,0.0985
-0.191,-0.046,0.096
-0.1895,-0.048,0.0955
-0.19,-0.045,0.0945
-0.187,-0.04,0.0925
-0.1865,-0.041,0.0935
-0.1855,-0.044,0.094
-0.1845,-0.0435,0.0925
-0.1815,-0.04,0.0895
-0.174,-0.038,0.0875
-0.17,-0.0385,0.088
-0.1705,-0.0375,0.0835
-0.1705,-0.036,0.0815
-0.1715,-0.0365,0.086
-0.18,-0.042,0.079
-0.1695,-0.0425,0.0735
-0.1665,-0.038,0.081
-0.179,-0.042,0.0885
-0.178,-0.045,0.0835
-0.176,-0.0465,0.0805
-0.1765,-0.0505,0.0815
-0.1815,-0.0515,0.082
-0.1845,-0.054,0.0815
-0.1775,-0.052,0.078
-0.18,-0.0535,0.0825
-0.19,-0.053,0.088
-0.182,-0.0485,0.081
-0.176,-0.051,0.08
-0.18,-0.0465,0.081
-0.184,-0.0435,0.0745
-0.191,-0.045,0.0785
-0.19,-0.044,0.08
-0.1835,-0.0405,0.0795
-0.1855,-0.0375,0.0815
-0.189,-0.036,0.078
-0.193,-0.041,0.0785
-0.197,-0.0465,0.0795
-0.1925,-0.045,0.073
-0.188,-0.0415,0.0775
-0.1905,-0.0435,0.0795
-0.192,-0.0465,0.0725
-0.1905,-0.044,0.0765
-0.1965,-0.0475,0.073
-0.1925,-0.0505,0.072
-0.1885,-0.0505,0.075
-0.1945,-0.0545,0.0705
-0.187,-0.0535,0.0715
-0.189,-0.0575,0.0685
-0.194,-0.061,0.0705
-0.19,-0.0595,0.0715
-0.1935,-0.0605,0.072
-0.195,-0.063,0.0715
-0.196,-0.0665,0.07
-0.205,-0.07,0.0745
-0.206,-0.0695,0.0725
-0.201,-0.067,0.07
-0.201,-0.063,0.0735
-0.2025,-0.0585,0.082
-0.201,-0.055,0.0845
-0.194,-0.049,0.0825
-0.1895,-0.0465,0.083
-0.1845,-0.0465,0.0855
-0.184,-0.0445,0.0885
-0.1805,-0.0415,0.0875
-0.179,-0.0405,0.0875
-0.185,-0.0435,0.085
-0.183,-0.048,0.0805
-0.1835,-0.051,0.0745
-0.182,-0.046,0.073
-0.184,-0.042,0.078
-0.192,-0.0445,0.0765
-0.1895,-0.041,0.074
-0.188,-0.04,0.0655
-0.192,-0.044,0.06
-0.188,-0.0415,0.0715
-0.1815,-0.0385,0.0775
-0.1885,-0.0405,0.0765
-0.195,-0.043,0.0785
-0.1915,-0.05,0.0825
-0.186,-0.054,0.0805
-0.1835,-0.054,0.0765
-0.1825,-0.054,0.0775
-0.1885,-0.056,0.0765
-0.1905,-0.06,0.079
-0.1885,-0.061,0.085
-0.192,-0.0565,0.086
-0.1885,-0.055,0.083
-0.1955,-0.062,0.0815
-0.19,-0.0595,0.0815
-0.185,-0.0565,0.0805
-0.1875,-0.0565,0.0875
-0.1815,-0.05,0.0875
-0.192,-0.054,0.0755
-0.196,-0.058,0.074
-0.196,-0.06,0.073
-0.2,-0.06,0.0735
-0.197,-0.0565,0.073
-0.1975,-0.059,0.0775
-0.1995,-0.0625,0.075
-0.1935,-0.064,0.071
-0.1885,-0.057,0.077
-0.1835,-0.051,0.073
-0.1865,-0.0545,0.075
-0.1915,-0.0545,0.0755
-0.192,-0.0555,0.072
-0.195,-0.057,0.07
-0.1905,-0.052,0.0695
-0.1865,-0.051,0.069
-0.1825,-0.05,0.0695
-0.18,-0.047,0.0685
-0.192,-0.052,0.065
-0.1965,-0.051,0.0715
-0.19,-0.0455,0.0685
-0.1905,-0.0455,0.0675
-0.186,-0.046,0.0695
-0.1925,-0.049,0.0695
-0.2015,-0.0505,0.0725
-0.2015,-0.0525,0.071
-0.2055,-0.0535,0.0715
-0.202,-0.0525,0.0745
-0.202,-0.0515,0.0745
-0.1995,-0.054,0.0685
-0.198,-0.056,0.0705
-0.1975,-0.0565,0.0735
-0.1955,-0.058,0.076
-0.199,-0.058,0.0715
-0.1995,-0.062,0.064
-0.1995,-0.0645,0.0685
-0.1995,-0.065,0.0685
-0.202,-0.0685,0.07
-0.204,-0.0705,0.0715
-0.198,-0.072,0.071
-0.198,-0.071,0.0715
-0.1995,-0.066,0.068
-0.196,-0.067,0.0625
-0.1915,-0.0655,0.0605
-0.1935,-0.059,0.0725
-0.2,-0.061,0.0705
-0.2055,-0.0625,0.064
-0.203,-0.058,0.068
-0.197,-0.055,0.064
-0.195,-0.0515,0.0735
-0.194,-0.0515,0.0785
-0.192,-0.0545,0.0725
-0.1915,-0.0535,0.076
-0.198,-0.0545,0.077
-0.194,-0.052,0.075
-0.1925,-0.052,0.075
-0.1975,-0.0545,0.0755
-0.188,-0.0495,0.074
-0.1915,-0.0495,0.079
-0.205,-0.052,0.0805
-0.2045,-0.055,0.073
-0.199,-0.0525,0.0685
-0.197,-0.053,0.07
-0.196,-0.0565,0.073
-0.195,-0.06,0.0685
-0.193,-0.068,0.066
-0.194,-0.0685,0.071
-0.197,-0.067,0.081
-0.191,-0.0645,0.0755
-0.192,-0.067,0.0725
-0.194,-0.0695,0.077
-0.189,-0.0685,0.0735
-0.1915,-0.0695,0.0745
-0.191,-0.0645,0.071
-0.192,-0.063,0.066
-0.194,-0.0615,0.063
-0.191,-0.057,0.0605
-0.1915,-0.0555,0.0645
-0.196,-0.0575,0.067
-0.201,-0.063,0.0675
-0.202,-0.0625,0.0705
-0.197,-0.059,0.0655
-0.196,-0.0575,0.0655
-0.201,-0.0595,0.07
-0.2,-0.0595,0.073
-0.193,-0.06,0.0715
-0.191,-0.061,0.069
-0.1965,-0.0595,0.0735
-0.1975,-0.057,0.0715
-0.1965,-0.057,0.0715
-0.195,-0.0605,0.0705
-0.1875,-0.0585,0.0715
-0.1905,-0.0585,0.0755
-0.199,-0.059,0.0755
-0.194,-0.056,0.082
-0.191,-0.058,0.082
-0.1935,-0.0595,0.0775
-0.197,-0.061,0.077
-0.2,-0.0625,0.0785
-0.1945,-0.062,0.081
-0.1905,-0.0625,0.083
-0.1925,-0.0625,0.087
-0.192,-0.0635,0.085
-0.193,-0.0615,0.0825
-0.2,-0.0585,0.082
-0.2045,-0.0565,0.0805
-0.204,-0.055,0.077
-0.2105,-0.055,0.078
-0.213,-0.0535,0.076
-0.2065,-0.053,0.0725
-0.201,-0.051,0.071
-0.1955,-0.049,0.0705
-0.1945,-0.048,0.072
-0.1915,-0.041,0.0705
-0.1865,-0.035,0.0685
-0.1795,-0.0295,0.0655
-0.172,-0.024,0.0705
-0.171,-0.023,0.0765
-0.1685,-0.02,0.076
-0.167,-0.0175,0.076
-0.165,-0.015,0.078
-0.163,-0.0145,0.0805
-0.1615,-0.016,0.08
-0.1585,-0.01,0.084
-0.16,-0.0055,0.0885
-0.162,-0.0035,0.0905
-0.1625,-0.0005,0.095
-0.1655,0.001,0.0985
-0.1655,0.0035,0.0965
-0.1635,0.0045,0.097
-0.1615,0.007,0.097
-0.1565,0.01,0.093
-0.159,0.0125,0.092
-0.1585,0.0165,0.0885
-0.1455,0.021,0.0855
-0.141,0.0275,0.086
-0.1415,0.035,0.086
-0.14,0.0385,0.0875
-0.1395,0.04,0.089
-0.135,0.0455,0.0895
-0.128,0.0495,0.093
-0.1205,0.05,0.0965
-0.116,0.053,0.0975
-0.1115,0.0535,0.102
-0.114,0.0525,0.1075
-0.118,0.0505,0.106
-0.1175,0.047,0.108
-0.122,0.046,0.1125
-0.1225,0.041,0.111
-0.1185,0.037,0.1085
-0.1205,0.0345,0.1035
-0.1215,0.0305,0.102
-0.123,0.03,0.106
-0.124,0.0285,0.105
-0.1225,0.0245,0.1025
-0.1215,0.02,0.099
-0.124,0.015,0.1025
-0.1335,0.013,0.105
-0.134,0.014,0.098
-0.135,0.0125,0.0995
-0.1365,0.0065,0.102
-0.134,0.0045,0.1035
-0.132,0.0055,0.102
-0.133,0.0035,0.1025
-0.139,0.002,0.11
-0.1385,0.0015,0.112
-0.133,0.001,0.109
-0.1355,-0.0015,0.1045
-0.1465,-0.006,0.1035
-0.144,-0.0065,0.0965
-0.143,-0.009,0.0905
-0.15,-0.013,0.09
-0.149,-0.0135,0.0885
-0.1505,-0.0135,0.089
-0.1465,-0.011,0.0875
-0.1405,-0.01,0.084
-0.1405,-0.0105,0.083
-0.1435,-0.012,0.0825
-0.146,-0.017,0.0755
-0.1485,-0.0225,0.069
-0.15,-0.0215,0.0645
-0.149,-0.0215,0.063
-0.1455,-0.0235,0.0645
-0.141,-0.024,0.0635
-0.1405,-0.0265,0.061
-0.146,-0.027,0.0645
-0.149,-0.0255,0.07
-0.146,-0.0215,0.0675
-0.1535,-0.0235,0.0775
-0.153,-0.023,0.088
-0.1525,-0.0245,0.0895
-0.161,-0.0285,0.0965
-0.1655,-0.0325,0.0995
-0.1815,-0.043,0.097
-0.1885,-0.049,0.092
-0.188,-0.0525,0.0835
-0.192,-0.053,0.082
-0.192,-0.051,0.08
-0.189,-0.0515,0.0765
-0.193,-0.0555,0.079
-0.198,-0.0585,0.072
-0.2015,-0.0625,0.0705
-0.2095,-0.0685,0.0745
-0.2085,-0.07,0.067
-0.2095,-0.074,0.066
-0.21,-0.0745,0.0685
-0.2125,-0.075,0.0645
-0.211,-0.074,0.0595
-0.2105,-0.073,0.0565
-0.218,-0.077,0.059
-0.214,-0.0765,0.064
-0.2115,-0.0715,0.0645
-0.211,-0.0715,0.058
-0.2185,-0.0775,0.0555
-0.2125,-0.0735,0.0565
-0.203,-0.071,0.0545
-0.204,-0.072,0.0525
-0.1965,-0.075,0.052
-0.197,-0.076,0.0525
-0.1985,-0.073,0.0475
-0.201,-0.075,0.0515
-0.2055,-0.075,0.059
-0.202,-0.0745,0.051
-0.192,-0.0755,0.05
-0.1925,-0.0755,0.053
-0.199,-0.0765,0.052
-0.197,-0.077,0.0585
-0.197,-0.0755,0.0565
-0.201,-0.077,0.0525
-0.206,-0.078,0.0565
-0.203,-0.081,0.0595
-0.2,-0.085,0.0645
-0.1975,-0.0865,0.062
-0.1965,-0.087,0.058
-0.194,-0.0865,0.0615
-0.1925,-0.086,0.0585
-0.19,-0.085,0.0565
-0.19,-0.085,0.0565
-0.2005,-0.0925,0.0525
-0.2045,-0.0975,0.0505
-0.2045,-0.0915,0.0535
-0.205,-0.09,0.056
-0.2095,-0.091,0.056
-0.208,-0.089,0.0525
-0.202,-0.089,0.049
-0.207,-0.09,0.053
-0.2105,-0.092,0.0555
-0.2075,-0.0915,0.059
-0.2085,-0.0925,0.063
-0.209,-0.092,0.0685
-0.2125,-0.0925,0.0655
-0.2075,-0.0935,0.061
-0.198,-0.091,0.0635
-0.204,-0.0935,0.063
-0.2,-0.093,0.062
-0.191,-0.0905,0.055
-0.1905,-0.092,0.053
-0.1885,-0.0895,0.0575
-0.1895,-0.0855,0.057
-0.19,-0.085,0.0555
-0.1885,-0.0865,0.0555
-0.1875,-0.086,0.0565
-0.192,-0.0855,0.0575
-0.1965,-0.0865,0.0585
-0.204,-0.089,0.0595
-0.207,-0.0905,0.058
-0.2015,-0.089,0.061
-0.2035,-0.0915,0.064
-0.202,-0.09,0.0585
-0.201,-0.088,0.0555
-0.1995,-0.0905,0.0605
-0.191,-0.0865,0.0635
-0.193,-0.084,0.062
-0.1935,-0.082,0.0645
-0.1905,-0.0805,0.0655
-0.194,-0.081,0.066
-0.192,-0.081,0.062
-0.188,-0.08,0.061
-0.1855,-0.075,0.066
-0.1855,-0.073,0.066
-0.1875,-0.0695,0.0685
-0.1865,-0.0655,0.068
-0.1885,-0.0685,0.0665
-0.18,-0.0715,0.0655
-0.1795,-0.073,0.068
-0.186,-0.0735,0.071
-0.1765,-0.075,0.0685
-0.1795,-0.0765,0.0685
-0.186,-0.0775,0.0705
-0.1845,-0.0785,0.0695
-0.188,-0.079,0.068
-0.183,-0.081,0.067
-0.181,-0.0875,0.0565
-0.1885,-0.098,0.0525
-0.1895,-0.106,0.047
-0.1965,-0.115,0.0365
-0.2055,-0.13,0.0285
-0.212,-0.147,0.0115
-0.2185,-0.163,-0.002
-0.2185,-0.1815,-0.0185
-0.2245,-0.198,-0.0285
-0.2305,-0.2055,-0.0335
-0.229,-0.2075,-0.0435
-0.228,-0.21,-0.048
-0.229,-0.2125,-0.052
-0.224,-0.206,-0.051
-0.2115,-0.194,-0.055
-0.1995,-0.172,-0.0565
-0.1775,-0.133,-0.0575
-0.154,-0.1015,-0.0685
-0.144,-0.0755,-0.0695
-0.122,-0.031,-0.061
-0.103,0.01,-0.05
-0.094,0.0515,-0.0345
-0.0635,0.116,-0.0165
-0.034,0.177,-0.0025
-0.0135,0.228,0.0125
0.007,0.282,0.0395
0.024,0.345,0.0785
0.0505,0.4195,0.1295
0.091,0.508,0.1835
0.1225,0.594,0.2305
0.1295,0.6445,0.3045
0.1405,0.7105,0.3765
0.1515,0.7975,0.443
0.1425,0.843,0.5235
0.1425,0.8875,0.562
0.1445,0.949,0.5825
0.1515,1.0165,0.6055
0.163,1.0675,0.629
0.1585,1.0995,0.6335
0.144,1.1225,0.625
0.12,1.0955,0.62
0.08,1.0245,0.587
0.0405,0.957,0.5415
0.0195,0.865,0.448
-0.0245,0.7335,0.344
-0.0965,0.561,0.3
-0.149,0.358,0.272
-0.2125,0.129,0.2495
-0.298,-0.135,0.226
-0.36,-0.3405,0.196
-0.3915,-0.476,0.1745
-0.401,-0.529,0.157
-0.398,-0.5235,0.1245
-0.393,-0.534,0.08
-0.3975,-0.539,0.0465
-0.4005,-0.5315,0.018
-0.4025,-0.5255,-0.014
-0.4045,-0.518,-0.039
-0.4045,-0.5135,-0.052
-0.397,-0.503,-0.0505
-0.3855,-0.4775,-0.0455
-0.379,-0.4535,-0.0435
-0.359,-0.4215,-0.0395
-0.338,-0.3865,-0.028
-0.3295,-0.36,-0.0185
-0.318,-0.334,-0.0075
-0.2975,-0.2965,0.002
-0.2725,-0.2575,0.0095
-0.2505,-0.2265,0.019
-0.239,-0.1985,0.0215
-0.2295,-0.176,0.025
-0.223,-0.1545,0.0215
-0.221,-0.1365,0.0255
-0.2135,-0.12,0.033
-0.211,-0.109,0.032
-0.2095,-0.104,0.0375
-0.202,-0.0945,0.048
-0.194,-0.0875,0.054
-0.192,-0.0815,0.061
-0.1895,-0.078,0.0695
-0.183,-0.075,0.075
-0.1825,-0.072,0.083
-0.168,-0.0665,0.082
-0.1585,-0.0625,0.0785
-0.1655,-0.063,0.077
-0.165,-0.0635,0.081
-0.1635,-0.065,0.0825
-0.167,-0.0665,0.081
-0.1695,-0.069,0.083
-0.1655,-0.0675,0.078
-0.164,-0.063,0.0755
-0.165,-0.0635,0.078
-0.167,-0.064,0.0805
-0.166,-0.063,0.0805
-0.1635,-0.0615,0.0755
-0.166,-0.059,0.0755
-0.166,-0.059,0.074
-0.166,-0.0605,0.0725
-0.169,-0.0615,0.073
-0.174,-0.062,0.0745
-0.1725,-0.0605,0.0775
-0.1705,-0.059,0.074
-0.168,-0.0605,0.075
-0.162,-0.059,0.0765
-0.1615,-0.0575,0.074
-0.1615,-0.0595,0.0765
-0.1575,-0.057,0.077
-0.1585,-0.0555,0.0755
-0.161,-0.057,0.0765
-0.1665,-0.061,0.0785
-0.176,-0.0615,0.074
-0.1775,-0.06,0.073
-0.179,-0.059,0.073
-0.1725,-0.0545,0.0755
-0.167,-0.053,0.08
-0.1725,-0.051,0.08
-0.173,-0.0505,0.082
-0.171,-0.053,0.079
-0.1705,-0.052,0.0775
-0.166,-0.046,0.0785
-0.1615,-0.0435,0.0785
-0.1615,-0.0445,0.079
-0.1645,-0.043,0.0785
-0.168,-0.045,0.0755
-0.168,-0.046,0.074
-0.163,-0.0435,0.0705
-0.163,-0.044,0.0715
-0.163,-0.0425,0.0755
-0.1605,-0.0395,0.074
-0.1635,-0.041,0.075
-0.163,-0.0425,0.074
-0.152,-0.0405,0.0725
-0.152,-0.0375,0.074
-0.1555,-0.037,0.08
-0.1555,-0.038,0.0835
-0.1595,-0.0415,0.086
-0.1575,-0.041,0.0885
-0.162,-0.0415,0.084
-0.162,-0.045,0.086
-0.1545,-0.04,0.0875
-0.156,-0.0385,0.0875
-0.152,-0.036,0.087
-0.149,-0.035,0.085
-0.1545,-0.037,0.0835
-0.1545,-0.0335,0.0795
-0.1485,-0.0315,0.0795
-0.14,-0.0265,0.0785
-0.1435,-0.0255,0.083
-0.146,-0.025,0.0845
-0.139,-0.0225,0.0775
-0.139,-0.022,0.077
-0.139,-0.022,0.0775
-0.1415,-0.021,0.078
-0.144,-0.021,0.0795
-0.1445,-0.0245,0.0815
-0.1435,-0.0255,0.0825
-0.1435,-0.026,0.078
-0.148,-0.0265,0.0775
-0.1495,-0.0265,0.078
-0.148,-0.026,0.0745
-0.1485,-0.028,0.0735
-0.1455,-0.029,0.072
-0.1345,-0.027,0.07
-0.132,-0.027,0.069
-0.133,-0.0235,0.07
-0.1325,-0.0235,0.0705
-0.134,-0.0235,0.0705
-0.134,-0.021,0.07
-0.1315,-0.017,0.069
-0.136,-0.0175,0.0685
-0.1435,-0.022,0.0715
-0.139,-0.0215,0.0745
-0.136,-0.022,0.073
-0.1355,-0.021,0.074
-0.1345,-0.0205,0.077
-0.133,-0.0185,0.0785
-0.1295,-0.015,0.08
-0.128,-0.016,0.0805
-0.1305,-0.02,0.0795
-0.129,-0.0205,0.0785
-0.1285,-0.0185,0.081
-0.1395,-0.021,0.0815
-0.1385,-0.022,0.0835
-0.135,-0.022,0.0855
-0.1365,-0.023,0.08
-0.136,-0.0225,0.078
-0.1355,-0.0215,0.0805
-0.135,-0.02,0.0805
-0.139,-0.021,0.0805
-0.135,-0.023,0.0825
-0.1325,-0.02,0.081
-0.133,-0.0185,0.0775
-0.131,-0.0175,0.0755
-0.1345,-0.02,0.077
-0.1295,-0.019,0.0795
-0.1245,-0.016,0.077
-0.123,-0.017,0.076
-0.1245,-0.016,0.0745
-0.1255,-0.015,0.078
-0.1175,-0.0115,0.0835
-0.1145,-0.011,0.0835
-0.1175,-0.0115,0.0855
-0.119,-0.013,0.082
-0.125,-0.0165,0.078
-0.127,-0.016,0.075
-0.126,-0.018,0.073
-0.1235,-0.0185,0.0765
-0.1195,-0.0175,0.076
-0.1215,-0.018,0.075
-0.127,-0.0185,0.0755
-0.129,-0.019,0.074
-0.1215,-0.018,0.0705
-0.1205,-0.0145,0.0705
-0.128,-0.0145,0.0735
-0.1315,-0.016,0.075
-0.1305,-0.015,0.0755
-0.129,-0.0145,0.0725
-0.1265,-0.013,0.067
-0.1265,-0.01,0.068
-0.122,-0.0085,0.069
-0.1235,-0.01,0.072
-0.1285,-0.011,0.076
-0.1245,-0.0105,0.0715
-0.1265,-0.011,0.068
-0.127,-0.009,0.069
-0.129,-0.009,0.0665
-0.127,-0.01,0.0645
-0.123,-0.0095,0.0655
-0.124,-0.0105,0.0685
-0.125,-0.011,0.0705
-0.1175,-0.008,0.065
-0.112,-0.0095,0.066
-0.119,-0.0085,0.069
-0.1125,-0.0025,0.068
-0.112,-0.002,0.0685
-0.122,-0.002,0.0695
-0.121,-0.0025,0.0705
-0.114,0.001,0.071
-0.112,0.0015,0.0735
-0.1125,0.002,0.0735
-0.109,0.0075,0.0745
-0.119,0.0045,0.075
-0.118,0.0045,0.077
-0.109,0.006,0.0755
-0.108,0.0065,0.072
-0.1055,0.013,0.0745
-0.106,0.0135,0.075
-0.1065,0.016,0.0775
-0.1005,0.0175,0.0765
-0.0985,0.016,0.078
-0.099,0.0185,0.077
-0.0945,0.021,0.0775
-0.0955,0.023,0.083
-0.0955,0.0265,0.082
-0.0945,0.026,0.087
-0.088,0.0275,0.087
-0.0805,0.031,0.0835
-0.082,0.032,0.081
-0.0875,0.033,0.0805
-0.092,0.036,0.087
-0.0905,0.04,0.086
-0.0945,0.04,0.085
-0.09,0.0385,0.0885
-0.082,0.04,0.0855
-0.0855,0.04,0.082
-0.08,0.042,0.0805
-0.0795,0.0435,0.0835
-0.081,0.045,0.0895
-0.072,0.0505,0.0895
-0.0795,0.051,0.091
-0.079,0.054,0.0945
-0.063,0.061,0.0985
-0.061,0.0625,0.106
-0.061,0.062,0.1085
-0.061,0.062,0.1095
-0.061,0.063,0.109
-0.0595,0.065,0.109
-0.0585,0.068,0.11
-0.054,0.0675,0.109
-0.053,0.072,0.1085
-0.055,0.0765,0.11
-0.0545,0.077,0.1135
-0.0515,0.0795,0.113
-0.0495,0.081,0.1105
-0.0445,0.0865,0.1065
-0.041,0.0915,0.107
-0.041,0.091,0.1065
-0.0385,0.0915,0.106
-0.0375,0.095,0.106
-0.0405,0.095,0.1075
-0.0425,0.0935,0.109
-0.037,0.096,0.107
-0.0335,0.0985,0.109
-0.0295,0.1015,0.108
-0.023,0.102,0.105
-0.02,0.102,0.111
-0.02,0.102,0.116
-0.0195,0.1055,0.115
-0.0175,0.11,0.1125
-0.0185,0.1095,0.1095
-0.0205,0.1105,0.1145
-0.0265,0.1105,0.1145
-0.029,0.111,0.114
-0.026,0.1135,0.111
-0.0235,0.116,0.1055
-0.0195,0.119,0.11
-0.0145,0.124,0.1115
-0.0115,0.1305,0.113
-0.0085,0.1335,0.113
-0.009,0.1335,0.112
-0.0115,0.1345,0.1125
-0.0075,0.137,0.1165
-0.01,0.14,0.1205
-0.0105,0.142,0.1195
-0.004,0.1405,0.122
-0.0055,0.141,0.122
-0.0035,0.143,0.1225
-0.0035,0.142,0.1225
-0.0005,0.1435,0.1195
0.0015,0.1435,0.121
0.0005,0.1425,0.1205
-0.005,0.1415,0.123
-0.011,0.141,0.1245
-0.0025,0.142,0.12
-0.0015,0.1425,0.1185
-0.005,0.144,0.119
-0.006,0.1435,0.1195
-0.0065,0.143,0.1225
-0.007,0.1415,0.123
-0.0105,0.138,0.1215
-0.0105,0.1375,0.121
-0.01,0.138,0.1195
-0.015,0.1355,0.1205
-0.0135,0.1355,0.124
-0.0145,0.133,0.121
-0.0195,0.1295,0.117
-0.018,0.129,0.115
-0.0225,0.1265,0.111
-0.033,0.1235,0.1105
-0.032,0.119,0.1135
-0.0285,0.1155,0.115
-0.034,0.1115,0.1105
-0.035,0.106,0.1105
-0.0375,0.102,0.1115
-0.038,0.098,0.111
-0.033,0.095,0.1095
-0.039,0.0915,0.1035
-0.0475,0.0835,0.1025
-0.05,0.0805,0.0995
-0.0575,0.077,0.097
-0.061,0.0715,0.098
-0.063,0.0695,0.0975
-0.0695,0.0665,0.098
-0.066,0.0675,0.0955
-0.067,0.063,0.0915
-0.0745,0.0555,0.088
-0.074,0.0515,0.0895
-0.077,0.044,0.0855
-0.078,0.039,0.078
-0.0745,0.04,0.078
-0.0805,0.035,0.079
-0.0885,0.029,0.079
-0.095,0.0265,0.0735
-0.101,0.0225,0.0685
-0.102,0.0195,0.0685
-0.099,0.015,0.065
-0.093,0.015,0.0645
-0.0925,0.0115,0.064
-0.096,0.007,0.061
-0.0995,0.0035,0.057
-0.1015,-0.001,0.053
-0.099,-0.0055,0.053
-0.106,-0.0105,0.051
-0.1145,-0.012,0.0525
-0.118,-0.0135,0.052
-0.122,-0.0155,0.052
-0.123,-0.0225,0.053
-0.126,-0.0265,0.05
-0.121,-0.0275,0.0475
-0.112,-0.0295,0.0475
-0.116,-0.033,0.047
-0.118,-0.033,0.0485
-0.1145,-0.0315,0.0495
-0.1235,-0.0345,0.049
-0.1275,-0.0365,0.0485
-0.1275,-0.037,0.046
-0.13,-0.0385,0.0465
-0.128,-0.039,0.046
-0.1295,-0.036,0.0465
-0.1285,-0.0335,0.0445
-0.1315,-0.0365,0.043
-0.1295,-0.038,0.044
-0.1325,-0.036,0.043
-0.14,-0.0385,0.0425
-0.1365,-0.0405,0.044
-0.133,-0.0435,0.047
-0.1305,-0.0455,0.045
-0.131,-0.045,0.041
-0.131,-0.045,0.041
-0.128,-0.0435,0.0415
-0.124,-0.0435,0.039
-0.1275,-0.0465,0.0365
-0.127,-0.048,0.0355
-0.1305,-0.0505,0.0355
-0.139,-0.0525,0.0365
-0.1385,-0.0535,0.0355
-0.14,-0.054,0.0345
-0.1425,-0.055,0.03
-0.143,-0.0565,0.0295
-0.141,-0.0565,0.032
-0.1415,-0.055,0.031
-0.1375,-0.058,0.0325
-0.1345,-0.06,0.0305
-0.1335,-0.058,0.029
-0.131,-0.0575,0.0325
-0.138,-0.0575,0.0345
-0.144,-0.059,0.036
-0.148,-0.059,0.0365
-0.1475,-0.057,0.0325
-0.14,-0.054,0.035
-0.138,-0.053,0.0365
-0.145,-0.053,0.0365
-0.1425,-0.051,0.037
-0.1425,-0.052,0.038
-0.1455,-0.0525,0.0395
-0.142,-0.0505,0.0355
-0.144,-0.0505,0.0345
-0.1415,-0.0525,0.0325
-0.1365,-0.055,0.0325
-0.1375,-0.0545,0.0335
-0.138,-0.054,0.031
-0.1325,-0.053,0.028
-0.134,-0.052,0.0275
-0.141,-0.054,0.0305
-0.1455,-0.052,0.0335
-0.156,-0.0525,0.0345
-0.159,-0.053,0.033
-0.1585,-0.05,0.0335
-0.1525,-0.051,0.0335
-0.1455,-0.051,0.0305
-0.148,-0.055,0.0305
-0.148,-0.0555,0.031
-0.146,-0.054,0.0305
-0.146,-0.055,0.0285
-0.155,-0.056,0.027
-0.1565,-0.0575,0.0255
-0.146,-0.0575,0.0225
-0.1445,-0.0595,0.0275
-0.148,-0.0625,0.0285
-0.149,-0.0635,0.028
-0.149,-0.0645,0.0305
-0.1515,-0.0665,0.0315
-0.1485,-0.0655,0.032
-0.1455,-0.064,0.0305
-0.1465,-0.0615,0.0325
-0.146,-0.059,0.0345
-0.1465,-0.0585,0.036
-0.142,-0.059,0.035
-0.14,-0.059,0.033
-0.137,-0.057,0.0355
-0.135,-0.057,0.035
-0.1435,-0.058,0.0365
-0.144,-0.06,0.037
-0.142,-0.061,0.034
-0.15,-0.0625,0.0365
-0.1545,-0.0675,0.039
-0.1495,-0.067,0.0375
-0.147,-0.066,0.0385
-0.146,-0.0685,0.039
-0.1455,-0.07,0.039
-0.1425,-0.0705,0.0385
-0.138,-0.07,0.037
-0.1455,-0.073,0.0365
-0.1485,-0.074,0.037
-0.141,-0.071,0.039
-0.1395,-0.0725,0.04
-0.1365,-0.0735,0.0375
-0.1335,-0.0725,0.035
-0.1375,-0.0705,0.0375
-0.137,-0.0695,0.0385
-0.1355,-0.069,0.0405
-0.14,-0.069,0.0395
-0.1405,-0.0695,0.0355
-0.1435,-0.069,0.0365
-0.1505,-0.071,0.034
-0.1485,-0.0685,0.036
-0.143,-0.065,0.036
-0.1425,-0.065,0.036
-0.1435,-0.065,0.036
-0.1465,-0.0645,0.0345
-0.1465,-0.064,0.032
-0.141,-0.0655,0.0285
-0.1435,-0.067,0.0345
-0.147,-0.0665,0.037
-0.145,-0.0645,0.037
-0.1445,-0.0645,0.0395
-0.1465,-0.065,0.04
-0.145,-0.0665,0.0395
-0.14,-0.065,0.0375
-0.136,-0.0635,0.034
-0.133,-0.064,0.034
-0.1335,-0.063,0.0375
-0.1335,-0.064,0.0365
-0.132,-0.0625,0.0355
-0.1335,-0.0645,0.036
-0.139,-0.067,0.034
-0.1385,-0.0645,0.0355
-0.131,-0.0645,0.0375
-0.129,-0.064,0.0375
-0.1325,-0.065,0.04
-0.1345,-0.0665,0.041
-0.125,-0.0625,0.0415
-0.125,-0.059,0.0415
-0.1305,-0.0595,0.041
-0.123,-0.059,0.044
-0.124,-0.0615,0.045
-0.1265,-0.0635,0.041
-0.12,-0.0605,0.043
-0.1195,-0.0605,0.042
-0.1185,-0.062,0.042
-0.116,-0.0635,0.0445
-0.124,-0.0655,0.045
-0.12,-0.0625,0.0445
-0.1175,-0.0615,0.0405
-0.1225,-0.0635,0.04
-0.1285,-0.0605,0.0415
-0.128,-0.06,0.045
-0.12,-0.061,0.0465
-0.12,-0.0595,0.0445
-0.116,-0.0565,0.043
-0.117,-0.057,0.04
-0.121,-0.0615,0.041
-0.1235,-0.0645,0.042
-0.128,-0.065,0.0425
-0.1255,-0.0645,0.0465
-0.127,-0.0655,0.0505
-0.125,-0.064,0.0495
-0.1195,-0.0615,0.046
-0.117,-0.0635,0.0475
-0.108,-0.0635,0.052
-0.1045,-0.0625,0.05
-0.109,-0.064,0.0495
-0.107,-0.065,0.0505
-0.104,-0.0675,0.0495
-0.104,-0.066,0.0475
-0.1085,-0.066,0.0485
-0.1145,-0.066,0.05
-0.118,-0.066,0.0465
-0.117,-0.064,0.0485
-0.118,-0.0615,0.047
-0.119,-0.065,0.0445
-0.117,-0.0655,0.046
-0.1205,-0.065,0.045
-0.1135,-0.0625,0.045
-0.1145,-0.063,0.049
-0.12,-0.0635,0.0515
-0.117,-0.0615,0.0505
-0.112,-0.063,0.0525
-0.1085,-0.063,0.054
-0.105,-0.06,0.052
-0.1025,-0.06,0.0515
-0.1045,-0.0605,0.052
-0.098,-0.0595,0.0515
-0.1025,-0.0605,0.0485
-0.107,-0.06,0.0465
-0.104,-0.057,0.045
-0.1075,-0.0575,0.0455
-0.1065,-0.0555,0.0515
-0.107,-0.0545,0.05
-0.111,-0.0575,0.048
-0.111,-0.0615,0.047
-0.1075,-0.0615,0.0445
-0.1085,-0.0615,0.0455
-0.109,-0.063,0.046
-0.109,-0.062,0.0465
-0.111,-0.062,0.048
-0.1135,-0.0615,0.0495
-0.111,-0.06,0.05
-0.1095,-0.058,0.049
-0.1105,-0.0565,0.048
-0.1045,-0.0555,0.0495
-0.11,-0.059,0.05
-0.112,-0.0615,0.0495
-0.1105,-0.061,0.0475
-0.111,-0.0625,0.0455
-0.112,-0.063,0.0485
-0.118,-0.066,0.05
-0.12,-0.0655,0.051
-0.116,-0.062,0.046
-0.1145,-0.061,0.041
-0.1215,-0.0625,0.0425
-0.1175,-0.0615,0.0425
-0.117,-0.0605,0.0435
-0.1185,-0.061,0.0435
-0.1175,-0.058,0.0445
-0.12,-0.057,0.0485
-0.119,-0.058,0.0465
-0.1185,-0.06,0.0425
-0.1175,-0.059,0.0435
-0.116,-0.058,0.044
-0.1155,-0.061,0.044
-0.1155,-0.0605,0.042
-0.1125,-0.061,0.0385
-0.109,-0.0615,0.0375
-0.1075,-0.0565,0.0335
-0.111,-0.058,0.033
-0.1185,-0.061,0.037
-0.121,-0.061,0.039
-0.1185,-0.0605,0.037
-0.12,-0.063,0.0345
-0.1175,-0.0655,0.035
-0.106,-0.0625,0.032
-0.111,-0.0665,0.0355
-0.1145,-0.0685,0.04
-0.1095,-0.0675,0.0415
-0.112,-0.0685,0.0395
-0.1125,-0.0655,0.038
-0.1155,-0.063,0.039
-0.1135,-0.0635,0.0395
-0.1055,-0.0645,0.037
-0.102,-0.062,0.035
-0.108,-0.062,0.037
-0.1085,-0.061,0.037
-0.1075,-0.0595,0.0385
-0.1095,-0.0585,0.037
-0.1065,-0.058,0.0345
-0.1075,-0.059,0.037
-0.109,-0.058,0.0395
-0.1045,-0.059,0.0365
-0.109,-0.0605,0.035
-0.1105,-0.0635,0.036
-0.1025,-0.062,0.035
-0.104,-0.059,0.0345
-0.1065,-0.062,0.0375
-0.1055,-0.0615,0.041
-0.106,-0.058,0.042
-0.107,-0.057,0.0425
-0.106,-0.057,0.042
-0.1015,-0.057,0.043
-0.0995,-0.0555,0.044
-0.1015,-0.0545,0.044
-0.105,-0.058,0.045
-0.1055,-0.0605,0.042
-0.1025,-0.06,0.0415
-0.0985,-0.0595,0.039
-0.0965,-0.0605,0.0365
-0.1075,-0.0655,0.0395
-0.115,-0.0685,0.038
-0.11,-0.0675,0.034
-0.1085,-0.065,0.0305
-0.1075,-0.066,0.0315
-0.1055,-0.0685,0.032
-0.1055,-0.0685,0.0305
-0.1055,-0.0675,0.034
-0.1065,-0.065,0.038
-0.111,-0.064,0.0375
-0.117,-0.0635,0.037
-0.12,-0.066,0.033
-0.12,-0.0685,0.0365
-0.112,-0.0635,0.0375
-0.1095,-0.062,0.0365
-0.1155,-0.065,0.0385
-0.113,-0.0655,0.0325
-0.1125,-0.065,0.036
-0.1145,-0.0665,0.0355
-0.1075,-0.0665,0.0315
-0.105,-0.067,0.0355
-0.1135,-0.0695,0.0365
-0.1155,-0.0705,0.0345
-0.117,-0.072,0.035
-0.1175,-0.0715,0.0355
-0.1055,-0.0685,0.032
-0.1045,-0.0665,0.0325
-0.108,-0.0675,0.0345
-0.1065,-0.067,0.034
-0.11,-0.067,0.035
-0.109,-0.067,0.0355
-0.109,-0.0655,0.033
-0.109,-0.066,0.0345
-0.107,-0.0645,0.0355
-0.1055,-0.063,0.037
-0.109,-0.0615,0.037
-0.1075,-0.0615,0.0325
-0.107,-0.065,0.0315
-0.112,-0.066,0.03
-0.115,-0.0665,0.0305
-0.1155,-0.0645,0.0285
-0.1175,-0.0635,0.028
-0.117,-0.062,0.0325
-0.11,-0.06,0.031
-0.1115,-0.0615,0.0295
-0.101,-0.0645,0.0265
-0.0965,-0.0665,0.027
-0.1045,-0.063,0.0315
-0.1065,-0.0605,0.0325
-0.114,-0.0615,0.0315
-0.1185,-0.0615,0.03
-0.1165,-0.0635,0.0295
-0.1145,-0.0655,0.03
-0.1125,-0.0635,0.0305
-0.113,-0.062,0.0295
-0.1175,-0.061,0.0315
-0.111,-0.0635,0.028
-0.107,-0.065,0.0265
-0.112,-0.064,0.028
-0.1135,-0.0675,0.0255
-0.1105,-0.069,0.029
-0.109,-0.0675,0.029
-0.1135,-0.067,0.03
-0.1125,-0.0685,0.032
-0.113,-0.0685,0.03
-0.1085,-0.0645,0.0325
-0.106,-0.065,0.034
-0.109,-0.0655,0.035
-0.1075,-0.061,0.0365
-0.1095,-0.0605,0.0365
-0.113,-0.0605,0.036
-0.115,-0.0615,0.034
-0.1125,-0.0615,0.033
-0.1105,-0.0615,0.0335
-0.1095,-0.063,0.0335
-0.1105,-0.063,0.0295
-0.108,-0.064,0.029
-0.1065,-0.066,0.0305
-0.1085,-0.065,0.028
-0.108,-0.0655,0.029
-0.106,-0.067,0.0305
-0.1055,-0.0645,0.0325
-0.1105,-0.062,0.035
-0.1175,-0.0635,0.0345
-0.1265,-0.0685,0.038
-0.1235,-0.068,0.0385
-0.1225,-0.066,0.038
-0.1265,-0.0655,0.0385
-0.122,-0.063,0.038
-0.1225,-0.064,0.0385
-0.1235,-0.063,0.0395
-0.118,-0.058,0.0405
-0.1195,-0.059,0.0435
-0.1235,-0.062,0.043
-0.1225,-0.061,0.0415
-0.126,-0.0595,0.0435
-0.1255,-0.0625,0.044
-0.1225,-0.066,0.046
-0.1165,-0.0645,0.0435
-0.11,-0.063,0.0415
-0.1075,-0.063,0.045
-0.1095,-0.0635,0.0475
-0.118,-0.063,0.049
-0.123,-0.062,0.048
-0.1255,-0.062,0.0465
-0.122,-0.062,0.048
-0.1205,-0.0595,0.049
-0.1235,-0.059,0.049
-0.1225,-0.0595,0.0495
-0.1235,-0.057,0.0495
-0.125,-0.0575,0.0485
-0.1265,-0.057,0.048
-0.1285,-0.0565,0.0495
-0.1275,-0.058,0.049
-0.125,-0.055,0.047
-0.1255,-0.0535,0.0445
-0.1225,-0.054,0.0435
-0.1195,-0.0525,0.0415
-0.12,-0.053,0.042
-0.1155,-0.053,0.0415
-0.1135,-0.05,0.0395
-0.112,-0.048,0.0435
-0.1165,-0.0485,0.042
-0.12,-0.0495,0.0405
-0.117,-0.052,0.0385
-0.1155,-0.0525,0.036
-0.116,-0.055,0.04
-0.117,-0.0545,0.04
-0.115,-0.054,0.043
-0.1155,-0.0545,0.048
-0.1145,-0.0525,0.046
-0.115,-0.055,0.0415
-0.117,-0.057,0.041
-0.114,-0.0585,0.044
-0.1095,-0.057,0.045
-0.1065,-0.0565,0.0465
-0.1045,-0.057,0.049
-0.108,-0.0555,0.0485
-0.1135,-0.054,0.0485
-0.115,-0.051,0.05
-0.1225,-0.0515,0.0535
-0.127,-0.049,0.059
-0.1245,-0.0475,0.061
-0.1255,-0.047,0.0615
-0.121,-0.0425,0.06
-0.113,-0.042,0.055
-0.1105,-0.0395,0.0545
-0.111,-0.0415,0.055
-0.1075,-0.0415,0.054
-0.0985,-0.041,0.0555
-0.096,-0.0395,0.0555
-0.0965,-0.0335,0.053
-0.097,-0.0315,0.0495
-0.098,-0.028,0.0505
-0.099,-0.0245,0.0505
-0.0995,-0.0205,0.05
-0.0955,-0.0175,0.0535
-0.0875,-0.0155,0.056
-0.0805,-0.013,0.0585
-0.078,-0.012,0.062
-0.0755,-0.008,0.0635
-0.0755,-0.0055,0.068
-0.069,-0.004,0.0675
-0.067,-0.002,0.0675
-0.0665,-0.001,0.0715
-0.055,0.0025,0.071
-0.054,0.006,0.0755
-0.055,0.01,0.0795
-0.0535,0.012,0.0795
-0.054,0.0105,0.077
-0.056,0.0115,0.0755
-0.0565,0.016,0.0745
-0.0575,0.016,0.0705
-0.056,0.019,0.0685
-0.0465,0.0255,0.065
-0.045,0.029,0.0655
-0.043,0.0325,0.064
-0.037,0.0365,0.0635
-0.036,0.0425,0.066
-0.0355,0.0455,0.0635
-0.024,0.05,0.0615
-0.016,0.055,0.0635
-0.015,0.0555,0.0635
-0.019,0.056,0.0645
-0.025,0.0585,0.0695
-0.02,0.059,0.066
-0.0215,0.056,0.066
-0.021,0.056,0.0725
-0.019,0.053,0.075
-0.02,0.0475,0.074
-0.017,0.046,0.068
-0.016,0.042,0.065
-0.0165,0.0385,0.0725
-0.016,0.037,0.0755
-0.0165,0.033,0.0755
-0.022,0.027,0.073
-0.0265,0.021,0.072
-0.0305,0.0185,0.076
-0.0355,0.015,0.0745
-0.0375,0.014,0.074
-0.034,0.0135,0.072
-0.034,0.01,0.074
-0.0325,0.01,0.08
-0.0335,0.0075,0.0805
-0.039,0.0065,0.0865
-0.0315,0.0095,0.0875
-0.0275,0.01,0.082
-0.0245,0.01,0.08
-0.025,0.006,0.0755
-0.031,0.0035,0.0735
-0.0355,0.0,0.067
-0.04,-0.004,0.059
-0.0415,-0.004,0.0595
-0.039,-0.0025,0.0585
-0.0365,-0.0005,0.061
-0.041,-0.0005,0.0605
-0.0375,-0.0035,0.057
-0.0365,-0.0075,0.0515
-0.0365,-0.0065,0.045
-0.034,-0.007,0.038
-0.0355,-0.009,0.0305
-0.0355,-0.01,0.0295
-0.036,-0.0105,0.0335
-0.0335,-0.0075,0.0375
-0.037,-0.008,0.0375
-0.04,-0.0105,0.0315
-0.0425,-0.011,0.0305
-0.0435,-0.0075,0.038
-0.035,-0.007,0.041
-0.0305,-0.006,0.049
-0.039,-0.005,0.057
-0.0465,-0.007,0.062
-0.0515,-0.0105,0.0675
-0.061,-0.018,0.0685
-0.073,-0.025,0.0655
-0.0905,-0.0345,0.0605
-0.092,-0.039,0.0515
-0.0885,-0.039,0.0425
-0.088,-0.039,0.0355
-0.0855,-0.0405,0.0325
-0.091,-0.046,0.035
-0.0945,-0.0495,0.037
-0.0955,-0.0545,0.0375
-0.094,-0.056,0.035
-0.0975,-0.0575,0.033
-0.101,-0.0615,0.0335
-0.104,-0.0645,0.032
-0.11,-0.071,0.0315
-0.114,-0.0745,0.031
-0.119,-0.076,0.0285
-0.1195,-0.079,0.029
-0.124,-0.083,0.031
-0.1235,-0.0855,0.03
-0.113,-0.0845,0.0275
-0.109,-0.081,0.0235
-0.111,-0.079,0.023
-0.1145,-0.0795,0.0235
-0.119,-0.08,0.0235
-0.118,-0.0785,0.0225
-0.1155,-0.078,0.019
-0.116,-0.077,0.0205
-0.1175,-0.0745,0.0235
-0.1185,-0.0745,0.0235
-0.1185,-0.0745,0.024
-0.1205,-0.072,0.025
-0.1195,-0.0705,0.025
-0.118,-0.069,0.0265
-0.119,-0.068,0.027
-0.1165,-0.0675,0.027
-0.116,-0.0685,0.0275
-0.115,-0.0685,0.024
-0.1145,-0.0685,0.0235
-0.119,-0.0695,0.0245
-0.118,-0.0675,0.024
-0.1155,-0.068,0.0235
-0.121,-0.0715,0.0235
-0.122,-0.0735,0.023
-0.1195,-0.074,0.0195
-0.1205,-0.0725,0.0185
-0.119,-0.0735,0.0205
-0.1205,-0.076,0.02
-0.12,-0.0765,0.0215
-0.1165,-0.0765,0.0225
-0.1155,-0.077,0.0245
-0.119,-0.0805,0.0255
-0.121,-0.0825,0.0255
-0.1195,-0.0815,0.0285
-0.122,-0.081,0.031
-0.123,-0.0805,0.0365
-0.1285,-0.083,0.0385
-0.133,-0.085,0.037
-0.128,-0.0855,0.0355
-0.1285,-0.0855,0.0335
-0.127,-0.0825,0.0345
-0.1245,-0.08,0.033
-0.1245,-0.079,0.033
-0.12,-0.0795,0.031
-0.121,-0.0805,0.031
-0.124,-0.08,0.03
-0.1245,-0.079,0.0285
-0.1265,-0.076,0.0345
-0.127,-0.076,0.035
-0.1245,-0.0745,0.032
-0.1245,-0.074,0.0295
-0.1245,-0.0735,0.026
-0.1225,-0.0705,0.032
-0.126,-0.07,0.0365
-0.123,-0.0685,0.0365
-0.116,-0.0665,0.037
-0.115,-0.067,0.0375
-0.1145,-0.0665,0.0385
-0.113,-0.068,0.037
-0.1175,-0.0715,0.038
-0.1165,-0.071,0.0415
-0.113,-0.0695,0.0415
-0.1145,-0.0685,0.041
-0.1085,-0.068,0.039
-0.107,-0.0685,0.037
-0.109,-0.069,0.037
-0.1085,-0.069,0.0385
-0.1085,-0.0705,0.04
-0.111,-0.073,0.042
-0.114,-0.074,0.044
-0.121,-0.0745,0.043
-0.127,-0.0755,0.0425
-0.1315,-0.0765,0.045
-0.1345,-0.077,0.049
-0.13,-0.078,0.053
-0.127,-0.0765,0.055
-0.1205,-0.075,0.0545
-0.119,-0.071,0.0505
-0.12,-0.072,0.0485
-0.1215,-0.0755,0.0485
-0.1245,-0.0785,0.0485
-0.1265,-0.0825,0.045
-0.134,-0.0865,0.038
-0.141,-0.0955,0.031
-0.1475,-0.1105,0.0225
-0.157,-0.1305,0.0125
-0.163,-0.1455,0.0015
-0.163,-0.1665,-0.015
-0.163,-0.1845,-0.025
-0.1635,-0.192,-0.0305
-0.1605,-0.1965,-0.0385
-0.161,-0.1975,-0.041
-0.161,-0.2005,-0.043
-0.1655,-0.1945,-0.042
-0.162,-0.1825,-0.0405
-0.1465,-0.1625,-0.042
-0.133,-0.13,-0.04
-0.107,-0.0925,-0.051
-0.085,-0.06,-0.061
-0.063,-0.022,-0.053
-0.036,0.015,-0.0415
-0.021,0.06,-0.0185
0.0015,0.1275,0.0015
0.0305,0.189,0.013
0.058,0.243,0.025
0.0835,0.3005,0.04
0.107,0.3625,0.0725
0.1335,0.4325,0.1205
0.169,0.527,0.173
0.2065,0.617,0.214
0.227,0.674,0.275
0.2395,0.7425,0.339
0.265,0.843,0.406
0.264,0.9155,0.485
0.2505,0.95,0.527
0.2675,1.005,0.5485
0.284,1.0725,0.565
0.2935,1.128,0.5825
0.289,1.1595,0.58
0.273,1.1845,0.576
0.253,1.179,0.5755
0.2185,1.1125,0.543
0.1725,1.0315,0.5025
0.1355,0.932,0.4115
0.097,0.8015,0.3095
0.0415,0.6575,0.266
-0.027,0.4695,0.2415
-0.099,0.2385,0.227
-0.1795,-0.0185,0.213
-0.253,-0.2415,0.1885
-0.296,-0.394,0.1625
-0.3135,-0.4735,0.135
-0.3045,-0.4805,0.101
-0.3025,-0.4875,0.0625
-0.312,-0.503,0.036
-0.3095,-0.4965,0.01
-0.3025,-0.484,-0.0195
-0.304,-0.4805,-0.043
-0.312,-0.482,-0.0615
-0.311,-0.4715,-0.0635
-0.3015,-0.442,-0.0535
-0.2915,-0.4145,-0.048
-0.28,-0.384,-0.0395
-0.267,-0.3575,-0.0245
-0.2535,-0.332,-0.0125
-0.2325,-0.299,-0.004
-0.2125,-0.2605,0.002
-0.2005,-0.2215,0.008
-0.187,-0.193,0.0205
-0.1695,-0.1705,0.0255
-0.1595,-0.1505,0.028
-0.151,-0.129,0.0285
-0.1355,-0.11,0.031
-0.132,-0.0965,0.033
-0.133,-0.085,0.036
-0.1245,-0.0765,0.0465
-0.1195,-0.07,0.0535
-0.1145,-0.064,0.063
-0.103,-0.0585,0.07
-0.101,-0.0585,0.0755
-0.101,-0.0585,0.0775
-0.099,-0.0575,0.0785
-0.1005,-0.054,0.0835
-0.0945,-0.052,0.088
-0.0855,-0.052,0.091
-0.0855,-0.0495,0.0915
-0.089,-0.0475,0.094
-0.0925,-0.0465,0.095
-0.095,-0.0485,0.094
-0.0945,-0.0515,0.09
-0.093,-0.0535,0.0855
-0.094,-0.054,0.0845
-0.0935,-0.0525,0.0835
-0.0985,-0.0525,0.0835
-0.112,-0.0535,0.0875
-0.1135,-0.0535,0.0905
-0.1075,-0.0515,0.0885
-0.1055,-0.05,0.087
-0.1015,-0.0495,0.0865
-0.0975,-0.0465,0.0875
-0.0855,-0.0455,0.089
-0.079,-0.046,0.089
-0.084,-0.0445,0.0885
-0.0835,-0.044,0.0885
-0.085,-0.0445,0.0855
-0.09,-0.0435,0.082
-0.092,-0.041,0.082
-0.0915,-0.041,0.0845
-0.092,-0.042,0.087
-0.091,-0.0425,0.086
-0.0915,-0.0415,0.0845
-0.0915,-0.0405,0.0865
-0.087,-0.039,0.088
-0.0835,-0.0375,0.087
-0.089,-0.038,0.0885
-0.0905,-0.0375,0.091
-0.0865,-0.036,0.092
-0.085,-0.0365,0.0935
-0.0815,-0.035,0.094
-0.0785,-0.0305,0.0915
-0.079,-0.0315,0.091
-0.0765,-0.028,0.094
-0.075,-0.028,0.0945
-0.0735,-0.0285,0.0955
-0.0695,-0.027,0.096
-0.07,-0.0275,0.092
-0.0705,-0.026,0.092
-0.072,-0.0265,0.092
-0.075,-0.025,0.09
-0.076,-0.027,0.0885
-0.079,-0.0275,0.085
-0.0785,-0.0255,0.082
-0.072,-0.0275,0.084
-0.072,-0.0275,0.085
-0.078,-0.029,0.087
-0.0825,-0.0295,0.091
-0.08,-0.03,0.09
-0.077,-0.032,0.0905
-0.077,-0.0315,0.0885
-0.08,-0.033,0.0895
-0.08,-0.033,0.089
-0.0765,-0.0325,0.087
-0.079,-0.031,0.088
-0.0745,-0.0295,0.089
-0.071,-0.0265,0.09
-0.072,-0.0205,0.0865
-0.071,-0.018,0.086
-0.076,-0.0175,0.0865
-0.0785,-0.0195,0.088
-0.0775,-0.021,0.087
-0.0805,-0.0215,0.0885
-0.0805,-0.021,0.0895
-0.0775,-0.0205,0.0875
-0.081,-0.0195,0.089
-0.085,-0.019,0.0875
-0.0885,-0.02,0.0925
-0.086,-0.0185,0.0935
-0.081,-0.017,0.0915
-0.0765,-0.017,0.0895
-0.0745,-0.0175,0.088
-0.0755,-0.018,0.088
-0.0755,-0.016,0.086
-0.081,-0.0165,0.086
-0.0795,-0.016,0.0835
-0.075,-0.0165,0.0825
-0.081,-0.016,0.081
-0.084,-0.015,0.081
-0.0825,-0.0165,0.081
-0.0865,-0.016,0.081
-0.0855,-0.0165,0.083
-0.084,-0.0175,0.0835
-0.087,-0.0165,0.0835
-0.082,-0.015,0.0825
-0.082,-0.0145,0.085
-0.084,-0.013,0.0845
-0.0865,-0.014,0.085
-0.0845,-0.0155,0.088
-0.0805,-0.0155,0.0865
-0.081,-0.017,0.085
-0.0815,-0.0175,0.0845
-0.08,-0.015,0.0845
-0.079,-0.011,0.0855
-0.083,-0.0115,0.085
-0.082,-0.0125,0.083
-0.0815,-0.0125,0.0815
-0.08,-0.0135,0.0805
-0.078,-0.013,0.0805
-0.077,-0.0105,0.0825
-0.074,-0.0095,0.0825
-0.076,-0.008,0.08
-0.079,-0.008,0.079
-0.083,-0.0095,0.078
-0.082,-0.009,0.077
-0.081,-0.01,0.0775
-0.0785,-0.0085,0.079
-0.0795,-0.006,0.0845
-0.084,-0.0045,0.089
-0.085,-0.003,0.0895
-0.085,-0.002,0.086
-0.0855,-0.004,0.0825
-0.0855,-0.007,0.082
-0.0795,-0.007,0.0825
-0.082,-0.0095,0.087
-0.0835,-0.0115,0.087
-0.0805,-0.0115,0.084
-0.0805,-0.01,0.084
-0.083,-0.009,0.0845
-0.085,-0.009,0.084
-0.0845,-0.0085,0.084
-0.082,-0.008,0.0835
-0.0835,-0.009,0.084
-0.096,-0.01,0.083
-0.0955,-0.0095,0.0815
-0.0935,-0.009,0.0865
-0.093,-0.006,0.086
-0.091,-0.0045,0.086
-0.0975,-0.0045,0.0885
-0.0965,0.0005,0.0865
-0.0945,0.0035,0.0845
-0.096,0.0035,0.081
-0.093,0.0035,0.079
-0.0895,0.0055,0.077
-0.0925,0.0065,0.078
-0.0895,0.007,0.0815
-0.078,0.0095,0.0795
-0.0775,0.008,0.079
-0.0785,0.007,0.08
-0.077,0.01,0.08
-0.0765,0.0095,0.0795
-0.0675,0.0115,0.0785
-0.0615,0.0135,0.077
-0.064,0.0155,0.077
-0.064,0.016,0.0785
-0.067,0.016,0.0795
-0.067,0.0185,0.0815
-0.0615,0.0195,0.081
-0.065,0.0195,0.085
-0.0665,0.0205,0.086
-0.0665,0.024,0.084
-0.064,0.025,0.085
-0.056,0.026,0.082
-0.054,0.028,0.084
-0.0535,0.029,0.0835
-0.0495,0.0305,0.0835
-0.0465,0.0315,0.0845
-0.048,0.033,0.0825
-0.0475,0.0345,0.083
-0.047,0.037,0.0835
-0.049,0.036,0.085
-0.0495,0.034,0.0845
-0.05,0.035,0.085
-0.042,0.0345,0.086
-0.0385,0.035,0.086
-0.049,0.036,0.0875
-0.054,0.0375,0.0915
-0.05,0.0405,0.091
-0.052,0.041,0.09
-0.0505,0.0395,0.0915
-0.0425,0.042,0.0905
-0.0425,0.0435,0.091
-0.041,0.044,0.0915
-0.0345,0.0455,0.0945
-0.035,0.044,0.097
-0.029,0.0465,0.0975
-0.0235,0.049,0.097
-0.0205,0.051,0.096
-0.014,0.0535,0.097
-0.012,0.0545,0.0975
-0.0105,0.059,0.1
-0.012,0.0615,0.1015
-0.015,0.064,0.101
-0.016,0.0665,0.102
-0.012,0.067,0.101
-0.0095,0.0695,0.1025
-0.0095,0.0735,0.1055
-0.0025,0.0765,0.108
-0.0015,0.079,0.1065
-0.006,0.0805,0.1075
-0.002,0.0815,0.1095
0.0025,0.084,0.108
0.006,0.087,0.108
0.0105,0.0905,0.109
0.011,0.093,0.111
0.0145,0.0945,0.1105
0.023,0.0975,0.1105
0.021,0.0995,0.1115
0.0205,0.1025,0.111
0.023,0.109,0.1125
0.022,0.1115,0.116
0.024,0.115,0.1155
0.0215,0.1175,0.1135
0.021,0.118,0.1155
0.0265,0.122,0.1155
0.0265,0.1255,0.1165
0.0275,0.1285,0.1175
0.033,0.131,0.12
0.0315,0.131,0.121
0.029,0.1315,0.121
0.031,0.1325,0.1215
0.037,0.133,0.1205
0.0385,0.1345,0.1225
0.0395,0.1365,0.123
0.042,0.1385,0.124
0.042,0.1395,0.13
0.0465,0.1405,0.1315
0.049,0.1445,0.1285
0.0505,0.1455,0.1255
0.052,0.1485,0.1215
0.0455,0.149,0.123
0.0445,0.1475,0.129
0.0445,0.1515,0.131
0.0425,0.154,0.13
0.0445,0.1555,0.1305
0.0455,0.1565,0.1315
0.045,0.1575,0.134
0.0425,0.1575,0.1385
0.043,0.159,0.1395
0.038,0.1615,0.14
0.0375,0.1615,0.1405
0.042,0.1605,0.1405
0.041,0.1625,0.1435
0.045,0.1655,0.1435
0.044,0.165,0.1435
0.0475,0.168,0.1415
0.052,0.17,0.139
0.051,0.171,0.139
0.0565,0.173,0.1385
0.059,0.1745,0.141
0.061,0.175,0.1405
0.062,0.1745,0.139
0.054,0.1725,0.138
0.0495,0.1705,0.1355
0.0515,0.1715,0.136
0.045,0.169,0.138
0.039,0.167,0.1365
0.0335,0.1645,0.1355
0.0305,0.159,0.1385
0.025,0.1565,0.139
0.023,0.1555,0.139
0.0265,0.1515,0.1355
0.025,0.1485,0.1315
0.0245,0.146,0.1335
0.015,0.1415,0.134
0.015,0.136,0.1315
0.0215,0.1315,0.1285
0.0185,0.1275,0.123
0.0085,0.1215,0.1215
0.0005,0.118,0.1225
-0.004,0.1125,0.12
-0.0105,0.1065,0.117
-0.0145,0.103,0.112
-0.0225,0.097,0.108
-0.0205,0.0935,0.1085
-0.024,0.0895,0.1075
-0.0335,0.0855,0.108
-0.04,0.0815,0.1075
-0.0425,0.076,0.1035
-0.042,0.0735,0.1005
-0.055,0.07,0.101
-0.055,0.069,0.102
-0.049,0.066,0.0975
-0.045,0.064,0.0945
-0.05,0.0595,0.092
-0.055,0.0515,0.0895
-0.0535,0.048,0.087
-0.059,0.0455,0.0845
-0.061,0.0405,0.086
-0.06,0.038,0.0835
-0.061,0.0365,0.08
-0.0685,0.031,0.0755
-0.0705,0.026,0.071
-0.073,0.0205,0.0715
-0.0735,0.0145,0.0705
-0.0765,0.012,0.0685
-0.0835,0.0095,0.068
-0.0815,0.007,0.0655
-0.081,0.004,0.0655
-0.0845,0.001,0.066
-0.09,0.0,0.064
-0.0935,-0.0015,0.063
-0.0945,-0.0045,0.0625
-0.092,-0.008,0.0625
-0.094,-0.0105,0.0635
-0.0895,-0.0125,0.0625
-0.0845,-0.015,0.06
-0.0925,-0.0165,0.059
-0.0915,-0.0165,0.058
-0.0855,-0.0175,0.0585
-0.0825,-0.02,0.0585
-0.081,-0.021,0.0555
-0.0835,-0.0235,0.0575
-0.088,-0.025,0.0585
-0.088,-0.0235,0.0565
-0.095,-0.024,0.0585
-0.0995,-0.024,0.0595
-0.1015,-0.0255,0.0605
-0.105,-0.028,0.062
-0.1035,-0.026,0.06
-0.107,-0.027,0.0585
-0.105,-0.0265,0.057
-0.0985,-0.024,0.056
-0.0955,-0.023,0.056
-0.0975,-0.024,0.0565
-0.0975,-0.028,0.0545
-0.092,-0.0275,0.053
-0.091,-0.025,0.053
-0.092,-0.026,0.0515
-0.0915,-0.027,0.052
-0.093,-0.0265,0.053
-0.097,-0.028,0.0545
-0.0985,-0.029,0.054
-0.101,-0.0305,0.053
-0.098,-0.0305,0.053
-0.097,-0.029,0.0525
-0.102,-0.0285,0.052
-0.099,-0.0275,0.0535
-0.0985,-0.0285,0.0555
-0.0985,-0.0295,0.0555
-0.0995,-0.0295,0.052
-0.103,-0.0315,0.055
-0.099,-0.0325,0.057
-0.095,-0.03,0.055
-0.0985,-0.0295,0.056
-0.1,-0.0295,0.055
-0.102,-0.03,0.053
-0.1075,-0.0295,0.0515
-0.1085,-0.029,0.051
-0.1055,-0.03,0.0515
-0.1055,-0.03,0.052
-0.108,-0.0305,0.0515
-0.1095,-0.0285,0.051
-0.1115,-0.0275,0.0515
-0.1095,-0.031,0.0495
-0.109,-0.0335,0.0485
-0.1115,-0.0335,0.0505
-0.1075,-0.0335,0.052
-0.1095,-0.0325,0.054
-0.1115,-0.0325,0.0525
-0.1135,-0.033,0.0505
-0.124,-0.033,0.0545
-0.1235,-0.0335,0.0575
-0.1165,-0.0325,0.056
-0.118,-0.0325,0.054
-0.117,-0.031,0.0525
-0.113,-0.03,0.0515
-0.113,-0.0295,0.0515
-0.112,-0.028,0.052
-0.1135,-0.0275,0.0505
-0.116,-0.0275,0.053
-0.115,-0.0275,0.054
-0.1175,-0.028,0.054
-0.122,-0.0285,0.055
-0.122,-0.0295,0.054
-0.1215,-0.0275,0.0555
-0.121,-0.024,0.056
-0.117,-0.0255,0.0575
-0.117,-0.027,0.0565
-0.116,-0.027,0.0545
-0.115,-0.0295,0.0555
-0.118,-0.0285,0.057
-0.1175,-0.03,0.058
-0.1105,-0.032,0.056
-0.111,-0.033,0.0565
-0.117,-0.0345,0.058
-0.1195,-0.036,0.0555
-0.12,-0.037,0.054
-0.1195,-0.036,0.0555
-0.1185,-0.037,0.0565
-0.1175,-0.0345,0.058
-0.1185,-0.033,0.059
-0.119,-0.0365,0.06
-0.1205,-0.034,0.058
-0.12,-0.0355,0.055
-0.1205,-0.038,0.0565
-0.124,-0.0375,0.059
-0.123,-0.0385,0.0625
-0.1235,-0.04,0.0625
-0.1255,-0.039,0.0615
-0.12,-0.0365,0.06
-0.1215,-0.0365,0.059
-0.125,-0.037,0.0615
-0.119,-0.0365,0.06
-0.12,-0.037,0.0615
-0.117,-0.037,0.061
-0.114,-0.037,0.0585
-0.122,-0.039,0.06
-0.1275,-0.0405,0.0605
-0.131,-0.0435,0.06
-0.1315,-0.0465,0.06
-0.129,-0.045,0.0635
-0.1285,-0.0435,0.064
-0.128,-0.044,0.063
-0.1235,-0.044,0.0645
-0.122,-0.0435,0.066
-0.1225,-0.0425,0.066
-0.124,-0.0445,0.0665
-0.1285,-0.045,0.068
-0.1305,-0.0445,0.0675
-0.129,-0.044,0.066
-0.1265,-0.0415,0.066
-0.1295,-0.042,0.0685
-0.1265,-0.0415,0.069
-0.1235,-0.0405,0.0675
-0.1215,-0.042,0.0635
-0.117,-0.0415,0.062
-0.1165,-0.0415,0.0635
-0.116,-0.043,0.0625
-0.113,-0.04,0.063
-0.1085,-0.04,0.0635
-0.1125,-0.04,0.0625
-0.1195,-0.0395,0.063
-0.1265,-0.0425,0.0635
-0.129,-0.043,0.0615
-0.131,-0.0415,0.063
-0.1345,-0.041,0.0645
-0.134,-0.041,0.064
-0.134,-0.043,0.064
-0.132,-0.045,0.065
-0.132,-0.044,0.065
-0.132,-0.042,0.0625
-0.1365,-0.043,0.064
-0.1395,-0.045,0.066
-0.1375,-0.044,0.0665
-0.131,-0.045,0.066
-0.1275,-0.0445,0.0655
-0.1285,-0.0425,0.0635
-0.1245,-0.041,0.062
-0.122,-0.04,0.061
-0.1205,-0.0405,0.0615
-0.1205,-0.039,0.064
-0.1225,-0.038,0.0615
-0.1245,-0.038,0.0605
-0.1205,-0.0375,0.06
-0.1195,-0.038,0.0585
-0.124,-0.0395,0.0575
-0.123,-0.0385,0.058
-0.123,-0.037,0.059
-0.1225,-0.0385,0.0565
-0.1215,-0.0375,0.056
-0.121,-0.038,0.056
-0.1245,-0.037,0.0565
-0.1275,-0.0365,0.0575
-0.126,-0.036,0.0565
-0.1255,-0.036,0.0555
-0.123,-0.0375,0.0555
-0.1205,-0.036,0.0525
-0.1185,-0.0355,0.0525
-0.119,-0.034,0.054
-0.1185,-0.034,0.053
-0.117,-0.037,0.0525
-0.12,-0.038,0.0495
-0.1225,-0.0385,0.0485
-0.1205,-0.041,0.049
-0.1235,-0.041,0.0515
-0.1245,-0.04,0.0525
-0.1235,-0.0395,0.051
-0.1265,-0.038,0.054
-0.1265,-0.04,0.055
-0.1255,-0.039,0.0525
-0.115,-0.037,0.0525
-0.112,-0.037,0.054
-0.1145,-0.0375,0.057
-0.1145,-0.0375,0.059
-0.116,-0.038,0.0555
-0.114,-0.0385,0.0535
-0.115,-0.037,0.053
-0.1155,-0.035,0.052
-0.118,-0.035,0.055
-0.1195,-0.034,0.0575
-0.119,-0.0335,0.056
-0.122,-0.0345,0.0555
-0.123,-0.035,0.0555
-0.1215,-0.0355,0.056
-0.117,-0.0345,0.057
-0.1155,-0.0325,0.058
-0.1145,-0.034,0.0605
-0.1165,-0.0335,0.0615
-0.1195,-0.032,0.0605
-0.1195,-0.0325,0.06
-0.1215,-0.0335,0.062
-0.12,-0.0335,0.0625
-0.1205,-0.0335,0.064
-0.1265,-0.0335,0.0685
-0.1295,-0.0345,0.068
-0.1195,-0.034,0.0645
-0.109,-0.0325,0.062
-0.108,-0.033,0.0595
-0.11,-0.032,0.061
-0.113,-0.033,0.062
-0.1135,-0.034,0.0585
-0.1155,-0.0355,0.057
-0.116,-0.0385,0.056
-0.112,-0.0355,0.057
-0.112,-0.035,0.057
-0.1155,-0.036,0.0555
-0.1155,-0.035,0.0585
-0.113,-0.037,0.058
-0.1115,-0.0355,0.056
-0.1085,-0.035,0.055
-0.109,-0.0375,0.054
-0.108,-0.037,0.054
-0.1085,-0.0365,0.056
-0.116,-0.0365,0.055
-0.119,-0.036,0.0545
-0.1175,-0.0345,0.0525
-0.118,-0.0355,0.051
-0.12,-0.0345,0.052
-0.1185,-0.035,0.0485
-0.119,-0.037,0.049
-0.1245,-0.0375,0.0505
-0.1275,-0.037,0.0495
-0.1275,-0.0375,0.0505
-0.1215,-0.0385,0.05
-0.119,-0.0375,0.05
-0.1215,-0.0375,0.0515
-0.1215,-0.0355,0.0505
-0.123,-0.0355,0.05
-0.123,-0.0385,0.052
-0.122,-0.038,0.051
-0.122,-0.0385,0.052
-0.118,-0.038,0.053
-0.117,-0.035,0.0535
-0.1235,-0.038,0.056
-0.1225,-0.04,0.055
-0.117,-0.0405,0.0525
-0.1155,-0.038,0.05
-0.1155,-0.037,0.049
-0.1185,-0.039,0.0505
-0.1195,-0.039,0.053
-0.121,-0.04,0.0545
-0.1215,-0.039,0.054
-0.122,-0.04,0.0525
-0.119,-0.0375,0.0515
-0.1195,-0.037,0.053
-0.121,-0.0395,0.0545
-0.1195,-0.04,0.0565
-0.1195,-0.043,0.0555
-0.1195,-0.0405,0.0535
-0.1185,-0.039,0.0535
-0.119,-0.039,0.0545
-0.1165,-0.038,0.0555
-0.108,-0.036,0.054
-0.113,-0.035,0.056
-0.118,-0.035,0.058
-0.114,-0.0355,0.0545
-0.1125,-0.0345,0.05
-0.1125,-0.0325,0.048
-0.1145,-0.0335,0.0475
-0.112,-0.036,0.048
-0.113,-0.0365,0.0505
-0.1155,-0.036,0.051
-0.114,-0.037,0.05
-0.1125,-0.0355,0.05
-0.1195,-0.0355,0.0495
-0.1205,-0.0375,0.0495
-0.1165,-0.0375,0.052
-0.121,-0.04,0.0535
-0.123,-0.04,0.053
-0.122,-0.0405,0.054
-0.125,-0.0415,0.054
-0.1255,-0.0405,0.0535
-0.123,-0.041,0.0545
-0.1305,-0.0415,0.057
-0.132,-0.041,0.058
-0.1235,-0.0435,0.0555
-0.123,-0.044,0.055
-0.123,-0.042,0.0525
-0.122,-0.043,0.052
-0.1255,-0.042,0.054
-0.124,-0.0425,0.0535
-0.122,-0.042,0.0525
-0.126,-0.041,0.053
-0.1235,-0.042,0.053
-0.1235,-0.041,0.056
-0.1295,-0.041,0.0585
-0.13,-0.04,0.061
-0.1305,-0.04,0.065
-0.134,-0.0395,0.0615
-0.1355,-0.039,0.06
-0.134,-0.0395,0.0605
-0.131,-0.04,0.062
-0.126,-0.039,0.0615
-0.132,-0.04,0.0605
-0.1345,-0.042,0.0595
-0.1225,-0.0415,0.055
-0.1175,-0.0405,0.052
-0.113,-0.039,0.0505
-0.112,-0.039,0.0525
-0.1165,-0.0405,0.051
-0.121,-0.041,0.0515
-0.1225,-0.0395,0.05
-0.1235,-0.0395,0.0465
-0.1225,-0.0395,0.0465
-0.127,-0.038,0.047
-0.1295,-0.0395,0.049
-0.126,-0.0375,0.0495
-0.1255,-0.0365,0.0485
-0.1225,-0.0375,0.048
-0.1245,-0.035,0.049
-0.1265,-0.0355,0.048
-0.1275,-0.0355,0.047
-0.1235,-0.0355,0.0475
-0.1255,-0.037,0.047
-0.131,-0.038,0.0495
-0.1225,-0.0385,0.049
-0.1205,-0.037,0.046
-0.121,-0.038,0.0455
-0.121,-0.039,0.048
-0.123,-0.038,0.0515
-0.122,-0.039,0.05
-0.124,-0.0425,0.0485
-0.1285,-0.0425,0.049
-0.1275,-0.041,0.049
-0.126,-0.0425,0.0495
-0.1255,-0.043,0.0515
-0.1245,-0.0415,0.0525
-0.1245,-0.0405,0.051
-0.124,-0.0425,0.0525
-0.123,-0.0425,0.0535
-0.1205,-0.0425,0.0515
-0.1195,-0.0435,0.053
-0.1175,-0.042,0.0525
-0.119,-0.0435,0.053
-0.122,-0.044,0.0555
-0.119,-0.0405,0.054
-0.118,-0.0405,0.051
-0.114,-0.0415,0.049
-0.1125,-0.041,0.049
-0.1155,-0.0415,0.051
-0.116,-0.0415,0.0505
-0.12,-0.041,0.0515
-0.1225,-0.042,0.0525
-0.1225,-0.043,0.051
-0.127,-0.0465,0.052
-0.132,-0.048,0.052
-0.133,-0.048,0.054
-0.128,-0.048,0.053
-0.1245,-0.0475,0.0525
-0.1225,-0.0475,0.0535
-0.12,-0.049,0.054
-0.115,-0.0505,0.0535
-0.11,-0.05,0.0525
-0.1105,-0.0525,0.0535
-0.1095,-0.051,0.053
