i,vx,vy
-0.012,0.3615,-0.163
-0.021,0.352,-0.164
-0.025,0.344,-0.1655
-0.0255,0.338,-0.1665
-0.0325,0.331,-0.166
-0.0335,0.326,-0.1665
-0.0385,0.3205,-0.1685
-0.0475,0.3145,-0.167
-0.0535,0.309,-0.168
-0.0575,0.3015,-0.168
-0.06,0.2945,-0.1705
-0.064,0.287,-0.175
-0.0715,0.277,-0.176
-0.0815,0.2665,-0.18
-0.088,0.2585,-0.183
-0.0915,0.253,-0.1835
-0.097,0.2465,-0.187
-0.0965,0.2425,-0.1895
-0.097,0.238,-0.188
-0.1095,0.221,-0.188
-0.112,0.212,-0.1875
-0.116,0.208,-0.1895
-0.1205,0.201,-0.194
-0.1165,0.1965,-0.1975
-0.1255,0.1885,-0.198
-0.1375,0.181,-0.196
-0.146,0.174,-0.195
-0.15,0.1665,-0.197
-0.151,0.1595,-0.2025
-0.1545,0.157,-0.204
-0.158,0.1555,-0.204
-0.16,0.1505,-0.2085
-0.1595,0.1435,-0.211
-0.163,0.1385,-0.21
-0.168,0.1335,-0.211
-0.167,0.129,-0.2125
-0.172,0.126,-0.2135
-0.1795,0.122,-0.2145
-0.181,0.119,-0.2165
-0.1805,0.114,-0.2175
-0.18,0.11,-0.218
-0.1825,0.108,-0.219
-0.1805,0.105,-0.219
-0.1835,0.1045,-0.22
-0.191,0.104,-0.22
-0.189,0.1005,-0.221
-0.1905,0.0985,-0.2245
-0.193,0.0965,-0.226
-0.1945,0.0945,-0.227
-0.1965,0.0915,-0.2295
-0.2015,0.089,-0.2285
-0.2045,0.0855,-0.231
-0.203,0.0825,-0.234
-0.2015,0.0815,-0.2335
-0.199,0.084,-0.2325
-0.1985,0.0845,-0.233
-0.1995,0.0835,-0.2335
-0.2035,0.081,-0.232
-0.2075,0.075,-0.235
-0.2075,0.0755,-0.2385
-0.208,0.074,-0.237
-0.206,0.0715,-0.237
-0.207,0.0715,-0.2385
-0.2055,0.0695,-0.239
-0.201,0.0695,-0.2405
-0.201,0.0705,-0.241
-0.2,0.0715,-0.241
-0.2005,0.069,-0.239
-0.2025,0.0655,-0.2395
-0.2055,0.0675,-0.2405
-0.209,0.065,-0.241
-0.213,0.0615,-0.2425
-0.218,0.0605,-0.243
-0.2145,0.0625,-0.2455
-0.21,0.065,-0.244
-0.2105,0.0645,-0.2445
-0.212,0.062,-0.2445
-0.2125,0.063,-0.2445
-0.208,0.063,-0.2445
-0.2035,0.058,-0.246
-0.207,0.0575,-0.248
-0.2145,0.0565,-0.248
-0.2115,0.0595,-0.248
-0.2055,0.0605,-0.2475
-0.2085,0.0575,-0.2495
-0.209,0.0595,-0.248
-0.2075,0.0605,-0.246
-0.206,0.0595,-0.245
-0.199,0.0595,-0.245
-0.2045,0.0615,-0.2445
-0.2105,0.0575,-0.244
-0.2085,0.0535,-0.243
-0.211,0.054,-0.2425
-0.214,0.0515,-0.2445
-0.211,0.0495,-0.243
-0.2085,0.0495,-0.244
-0.2125,0.048,-0.245
-0.212,0.05,-0.2455
-0.209,0.0525,-0.2475
-0.212,0.048,-0.2475
-0.215,0.0455,-0.246
-0.21,0.048,-0.243
-0.2075,0.0475,-0.244
-0.2075,0.0445,-0.247
-0.2085,0.0455,-0.2445
-0.2105,0.048,-0.243
-0.21,0.051,-0.243
-0.2115,0.051,-0.2415
-0.2095,0.051,-0.244
-0.211,0.052,-0.2425
-0.2125,0.049,-0.2445
-0.212,0.0505,-0.245
-0.214,0.053,-0.244
-0.2115,0.0535,-0.2445
-0.2105,0.055,-0.244
-0.2075,0.054,-0.2465
-0.2055,0.052,-0.2455
-0.2075,0.0555,-0.2465
-0.21,0.057,-0.2455
-0.208,0.051,-0.244
-0.2045,0.05,-0.2445
-0.2085,0.053,-0.244
-0.211,0.0525,-0.2465
-0.209,0.051,-0.247
-0.204,0.0525,-0.246
-0.2045,0.056,-0.244
-0.207,0.055,-0.244
-0.2055,0.0575,-0.2425
-0.2095,0.0575,-0.244
-0.212,0.055,-0.2455
-0.209,0.0545,-0.243
-0.2045,0.056,-0.243
-0.202,0.059,-0.245
-0.2055,0.0605,-0.243
-0.2115,0.0565,-0.242
-0.2105,0.055,-0.2435
-0.2065,0.06,-0.2415
-0.205,0.062,-0.243
-0.2035,0.0605,-0.2435
-0.206,0.0575,-0.245
-0.204,0.0595,-0.2455
-0.2005,0.064,-0.242
-0.201,0.063,-0.243
-0.202,0.0625,-0.2445
-0.203,0.063,-0.247
-0.2035,0.0625,-0.2475
-0.207,0.064,-0.245
-0.206,0.064,-0.2445
-0.203,0.0645,-0.245
-0.2015,0.0655,-0.2425
-0.204,0.064,-0.242
-0.2105,0.0605,-0.2445
-0.212,0.0585,-0.244
-0.212,0.059,-0.246
-0.209,0.061,-0.2475
-0.2065,0.062,-0.248
-0.2075,0.0605,-0.251
-0.205,0.06,-0.252
-0.2035,0.0605,-0.252
-0.202,0.06,-0.2535
-0.1995,0.0615,-0.2515
-0.197,0.0625,-0.2495
-0.197,0.0605,-0.249
-0.2005,0.056,-0.248
-0.2035,0.0545,-0.248
-0.2055,0.0565,-0.2495
-0.208,0.059,-0.249
-0.2045,0.059,-0.2485
-0.2015,0.0585,-0.2475
-0.205,0.0595,-0.245
-0.2015,0.0605,-0.2465
-0.202,0.061,-0.2455
-0.203,0.058,-0.245
-0.199,0.058,-0.245
-0.202,0.061,-0.2445
-0.205,0.062,-0.245
-0.203,0.062,-0.245
-0.2015,0.0635,-0.2465
-0.206,0.065,-0.248
-0.202,0.0645,-0.25
-0.197,0.0625,-0.252
-0.197,0.0615,-0.2535
-0.194,0.0625,-0.253
-0.194,0.0645,-0.2505
-0.192,0.068,-0.2515
-0.1915,0.0685,-0.251
-0.1915,0.068,-0.2485
-0.1925,0.0645,-0.249
-0.196,0.062,-0.2505
-0.1995,0.064,-0.2505
-0.2005,0.065,-0.2525
-0.2,0.0615,-0.2535
-0.201,0.061,-0.251
-0.199,0.063,-0.25
-0.2,0.062,-0.251
-0.201,0.063,-0.2525
-0.2005,0.062,-0.254
-0.199,0.062,-0.2555
-0.1975,0.061,-0.255
-0.1965,0.0615,-0.256
-0.197,0.062,-0.2585
-0.2015,0.06,-0.257
-0.1975,0.0625,-0.2565
-0.196,0.066,-0.258
-0.197,0.0665,-0.258
-0.197,0.062,-0.2565
-0.202,0.06,-0.2585
-0.204,0.06,-0.2575
-0.2045,0.0595,-0.256
-0.2045,0.0585,-0.2575
-0.203,0.0595,-0.257
-0.2005,0.0605,-0.258
-0.2035,0.0595,-0.2585
-0.207,0.059,-0.2575
-0.204,0.058,-0.257
-0.202,0.06,-0.26
-0.2045,0.06,-0.2605
-0.203,0.0595,-0.2565
-0.2005,0.061,-0.257
-0.2025,0.0595,-0.259
-0.2,0.0565,-0.259
-0.201,0.0545,-0.2585
-0.2015,0.054,-0.2605
-0.1985,0.0545,-0.263
-0.1995,0.052,-0.2615
-0.2005,0.051,-0.259
-0.2025,0.055,-0.2595
-0.204,0.0525,-0.262
-0.2045,0.051,-0.263
-0.2015,0.0525,-0.26
-0.205,0.0505,-0.2605
-0.2065,0.053,-0.2635
-0.203,0.0535,-0.261
-0.206,0.05,-0.259
-0.2075,0.05,-0.2595
-0.2065,0.0485,-0.259
-0.2045,0.0435,-0.2585
-0.2075,0.0435,-0.2605
-0.21,0.046,-0.2625
-0.208,0.047,-0.263
-0.2055,0.0485,-0.2625
-0.206,0.048,-0.2615
-0.2075,0.048,-0.2605
-0.2035,0.0465,-0.2635
-0.2025,0.046,-0.2655
-0.2045,0.045,-0.263
-0.209,0.0445,-0.262
-0.212,0.044,-0.261
-0.209,0.043,-0.261
-0.209,0.047,-0.26
-0.206,0.0485,-0.262
-0.206,0.0465,-0.264
-0.2105,0.0455,-0.2625
-0.209,0.043,-0.2625
-0.2135,0.0425,-0.2605
-0.212,0.0415,-0.261
-0.208,0.0425,-0.2615
-0.2085,0.042,-0.2615
-0.208,0.041,-0.262
-0.209,0.047,-0.2605
-0.2065,0.0455,-0.261
-0.2015,0.039,-0.262
-0.1985,0.041,-0.2605
-0.2025,0.042,-0.2605
-0.2065,0.039,-0.261
-0.2145,0.036,-0.261
-0.2165,0.038,-0.2615
-0.211,0.038,-0.261
-0.211,0.036,-0.2625
-0.2095,0.0375,-0.261
-0.2065,0.039,-0.259
-0.2035,0.04,-0.262
-0.205,0.0395,-0.261
-0.21,0.0375,-0.2595
-0.213,0.039,-0.2595
-0.2135,0.04,-0.2615
-0.211,0.037,-0.262
-0.21,0.0365,-0.262
-0.212,0.0355,-0.263
-0.2105,0.0345,-0.2655
-0.207,0.0355,-0.265
-0.2065,0.0345,-0.263
-0.2055,0.0335,-0.263
-0.204,0.033,-0.263
-0.204,0.0355,-0.2635
-0.206,0.0375,-0.264
-0.207,0.0365,-0.264
-0.2095,0.0365,-0.264
-0.209,0.0345,-0.2645
-0.209,0.037,-0.262
-0.211,0.0365,-0.26
-0.21,0.0355,-0.2615
-0.2105,0.0375,-0.2615
-0.2065,0.039,-0.26
-0.2065,0.038,-0.26
-0.2075,0.0375,-0.2605
-0.2025,0.042,-0.2605
-0.2015,0.045,-0.263
-0.2055,0.042,-0.266
-0.2075,0.0385,-0.265
-0.208,0.0375,-0.264
-0.2055,0.0365,-0.266
-0.2005,0.0365,-0.268
-0.201,0.037,-0.268
-0.1985,0.0395,-0.2675
-0.2025,0.039,-0.2655
-0.2085,0.0385,-0.2655
-0.2075,0.0375,-0.2665
-0.2075,0.034,-0.268
-0.2075,0.0365,-0.269
-0.2075,0.037,-0.269
-0.209,0.04,-0.271
-0.208,0.0405,-0.268
-0.209,0.035,-0.266
-0.213,0.0345,-0.2675
-0.212,0.034,-0.269
-0.214,0.0335,-0.2705
-0.217,0.0335,-0.268
-0.215,0.035,-0.267
-0.214,0.035,-0.271
-0.214,0.033,-0.271
-0.216,0.032,-0.2665
-0.2145,0.0335,-0.266
-0.212,0.0355,-0.267
-0.211,0.0345,-0.2675
-0.208,0.036,-0.2675
-0.2095,0.0355,-0.268
-0.2105,0.035,-0.266
-0.211,0.034,-0.265
-0.212,0.0345,-0.2655
-0.2085,0.034,-0.2655
-0.2085,0.031,-0.2645
-0.2075,0.034,-0.263
-0.209,0.0305,-0.2635
-0.213,0.0275,-0.2655
-0.212,0.0295,-0.266
-0.213,0.028,-0.266
-0.2125,0.0295,-0.265
-0.211,0.0295,-0.2635
-0.2105,0.0305,-0.265
-0.208,0.0335,-0.265
-0.21,0.0325,-0.264
-0.212,0.031,-0.2665
-0.209,0.032,-0.2685
-0.209,0.031,-0.269
-0.214,0.03,-0.2675
-0.2145,0.031,-0.267
-0.2135,0.03,-0.2675
-0.2145,0.0315,-0.2685
-0.2155,0.032,-0.269
-0.2155,0.03,-0.267
-0.214,0.0305,-0.267
-0.2125,0.0315,-0.27
-0.213,0.0325,-0.2665
-0.214,0.0315,-0.2645
-0.2145,0.027,-0.269
-0.213,0.025,-0.2685
-0.208,0.0285,-0.2705
-0.205,0.032,-0.272
-0.204,0.0365,-0.272
-0.1995,0.0355,-0.268
-0.197,0.034,-0.2675
-0.1975,0.034,-0.2685
-0.1975,0.033,-0.266
-0.2055,0.0335,-0.27
-0.2085,0.035,-0.2695
-0.2055,0.034,-0.271
-0.206,0.028,-0.271
-0.2095,0.0305,-0.269
-0.211,0.0305,-0.269
-0.2085,0.027,-0.2695
-0.209,0.029,-0.2715
-0.21,0.0285,-0.2715
-0.212,0.026,-0.2715
-0.2145,0.022,-0.2695
-0.214,0.022,-0.2685
-0.2145,0.023,-0.269
-0.2095,0.0245,-0.2695
-0.205,0.026,-0.269
-0.204,0.024,-0.271
-0.2005,0.0245,-0.2695
-0.2045,0.0235,-0.2685
-0.208,0.022,-0.2685
-0.207,0.0235,-0.2665
-0.205,0.022,-0.2675
-0.2015,0.023,-0.2645
-0.2035,0.0235,-0.2645
-0.2035,0.0215,-0.2645
-0.203,0.0235,-0.2605
-0.199,0.026,-0.256
-0.191,0.0315,-0.2545
-0.19,0.034,-0.253
-0.191,0.03,-0.2515
-0.191,0.031,-0.2505
-0.1905,0.0335,-0.252
-0.1875,0.037,-0.2515
-0.187,0.04,-0.2495
-0.1865,0.042,-0.248
-0.186,0.0435,-0.247
-0.1845,0.0465,-0.248
-0.1805,0.051,-0.2475
-0.1755,0.051,-0.248
-0.172,0.0545,-0.247
-0.1735,0.053,-0.25
-0.1715,0.051,-0.2525
-0.1705,0.055,-0.251
-0.1705,0.0565,-0.2525
-0.1705,0.055,-0.2545
-0.177,0.055,-0.254
-0.1785,0.059,-0.252
-0.1755,0.06,-0.252
-0.1735,0.06,-0.2565
-0.1725,0.062,-0.2595
-0.171,0.0645,-0.2615
-0.168,0.067,-0.262
-0.1605,0.07,-0.263
-0.156,0.0725,-0.267
-0.1485,0.0795,-0.2685
-0.1425,0.0865,-0.2715
-0.142,0.088,-0.273
-0.1335,0.0915,-0.2715
-0.1315,0.0935,-0.2715
-0.1305,0.0905,-0.2735
-0.1255,0.09,-0.2745
-0.1255,0.091,-0.274
-0.13,0.09,-0.2715
-0.1375,0.086,-0.273
-0.136,0.079,-0.2785
-0.1415,0.0735,-0.28
-0.1485,0.0715,-0.279
-0.1475,0.071,-0.2785
-0.148,0.067,-0.279
-0.15,0.065,-0.2775
-0.152,0.066,-0.277
-0.1505,0.0685,-0.2785
-0.149,0.066,-0.2745
-0.154,0.059,-0.2705
-0.1585,0.057,-0.271
-0.149,0.061,-0.2705
-0.1425,0.064,-0.2735
-0.1465,0.063,-0.2755
-0.146,0.062,-0.2735
-0.1405,0.0625,-0.2745
-0.1335,0.0645,-0.275
-0.131,0.065,-0.274
-0.1325,0.0675,-0.271
-0.129,0.0715,-0.2675
-0.123,0.074,-0.2625
-0.1225,0.0755,-0.259
-0.12,0.077,-0.2575
-0.1205,0.078,-0.256
-0.128,0.0775,-0.2545
-0.1305,0.0765,-0.2555
-0.133,0.0755,-0.2585
-0.135,0.075,-0.26
-0.1325,0.072,-0.2605
-0.134,0.067,-0.2605
-0.137,0.0665,-0.2605
-0.1425,0.064,-0.262
-0.1475,0.0625,-0.262
-0.154,0.061,-0.259
-0.1605,0.057,-0.2605
-0.164,0.0515,-0.264
-0.173,0.047,-0.265
-0.183,0.0425,-0.266
-0.1915,0.0335,-0.268
-0.195,0.027,-0.2725
-0.199,0.025,-0.275
-0.2045,0.023,-0.2745
-0.21,0.019,-0.275
-0.2145,0.0185,-0.2755
-0.2145,0.0175,-0.2735
-0.2145,0.0145,-0.273
-0.218,0.012,-0.2725
-0.221,0.009,-0.2715
-0.221,0.009,-0.2715
-0.2205,0.0065,-0.27
-0.218,0.004,-0.2725
-0.221,0.0065,-0.2755
-0.2215,0.0065,-0.276
-0.2195,0.0055,-0.275
-0.2205,0.005,-0.2745
-0.218,0.0015,-0.274
-0.218,0.003,-0.2745
-0.218,0.0055,-0.2755
-0.218,0.0045,-0.2735
-0.215,0.005,-0.273
-0.217,0.005,-0.2755
-0.221,0.0095,-0.2755
-0.217,0.015,-0.271
-0.214,0.007,-0.271
-0.217,0.006,-0.272
-0.2195,0.01,-0.272
-0.223,0.0065,-0.2725
-0.232,0.0045,-0.2735
-0.229,0.0055,-0.2735
-0.2235,0.009,-0.274
-0.225,0.0075,-0.2765
-0.222,0.0055,-0.274
-0.2205,0.0075,-0.2715
-0.2215,0.008,-0.271
-0.2255,0.0065,-0.2725
-0.226,0.007,-0.2725
-0.222,0.011,-0.2725
-0.221,0.0085,-0.2735
-0.219,0.0065,-0.269
-0.217,0.009,-0.2675
-0.2195,0.008,-0.269
-0.2215,0.0075,-0.269
-0.221,0.0055,-0.27
-0.223,0.007,-0.2705
-0.2215,0.011,-0.272
-0.224,0.013,-0.2705
-0.2215,0.0185,-0.2645
-0.214,0.025,-0.2595
-0.214,0.0265,-0.2545
-0.211,0.031,-0.2485
-0.2085,0.043,-0.2425
-0.2085,0.0505,-0.2345
-0.214,0.05,-0.2235
-0.216,0.0555,-0.2085
-0.213,0.0655,-0.1945
-0.2075,0.0795,-0.179
-0.2,0.0975,-0.1645
-0.1825,0.1255,-0.1535
-0.1535,0.1695,-0.1395
-0.1295,0.208,-0.129
-0.101,0.25,-0.116
-0.0695,0.3105,-0.101
-0.0425,0.3655,-0.088
-0.0065,0.4275,-0.0755
0.0395,0.4965,-0.062
0.0905,0.5715,-0.0455
0.133,0.643,-0.0365
0.162,0.6895,-0.033
0.186,0.7265,-0.0305
0.204,0.7495,-0.029
0.217,0.767,-0.031
0.23,0.787,-0.0315
0.246,0.812,-0.036
0.253,0.8335,-0.047
0.258,0.847,-0.053
0.2675,0.8715,-0.0595
0.264,0.8935,-0.0685
0.257,0.9095,-0.0795
0.2425,0.9,-0.099
0.2265,0.8725,-0.1135
0.216,0.8495,-0.131
0.195,0.8075,-0.141
0.1655,0.746,-0.145
0.098,0.6415,-0.1625
0.0245,0.5245,-0.1885
-0.0165,0.441,-0.249
-0.055,0.355,-0.31
-0.0995,0.255,-0.348
-0.14,0.146,-0.3855
-0.1715,0.0515,-0.421
-0.199,-0.0395,-0.4555
-0.233,-0.1465,-0.477
-0.2765,-0.2395,-0.4885
-0.3115,-0.303,-0.4935
-0.325,-0.327,-0.4935
-0.324,-0.323,-0.491
-0.322,-0.306,-0.4815
-0.32,-0.2845,-0.4685
-0.3105,-0.263,-0.455
-0.3015,-0.2435,-0.4405
-0.3015,-0.2305,-0.429
-0.302,-0.2135,-0.4175
-0.3025,-0.198,-0.4005
-0.3,-0.183,-0.3835
-0.296,-0.1665,-0.369
-0.2865,-0.1455,-0.358
-0.2825,-0.1335,-0.3515
-0.2915,-0.1275,-0.344
-0.2885,-0.1135,-0.337
-0.28,-0.102,-0.3275
-0.2655,-0.083,-0.317
-0.252,-0.063,-0.307
-0.246,-0.0485,-0.3
-0.243,-0.0375,-0.2945
-0.24,-0.0305,-0.289
-0.232,-0.02,-0.288
-0.226,-0.008,-0.283
-0.218,-0.0005,-0.28
-0.211,0.002,-0.2795
-0.2105,0.001,-0.2775
-0.2135,0.002,-0.2785
-0.2165,0.008,-0.2735
-0.2165,0.0105,-0.27
-0.212,0.014,-0.2695
-0.206,0.0175,-0.2675
-0.2065,0.017,-0.2675
-0.2105,0.0145,-0.2675
-0.211,0.0115,-0.266
-0.208,0.0125,-0.266
-0.2065,0.018,-0.266
-0.204,0.018,-0.2665
-0.207,0.016,-0.268
-0.21,0.0155,-0.27
-0.2075,0.015,-0.2685
-0.2075,0.015,-0.266
-0.2045,0.0195,-0.265
-0.2045,0.022,-0.2665
-0.2065,0.0195,-0.267
-0.2055,0.0185,-0.2655
-0.203,0.0205,-0.266
-0.2025,0.0215,-0.2655
-0.207,0.023,-0.263
-0.2085,0.0255,-0.2615
-0.207,0.0245,-0.2615
-0.2065,0.0255,-0.2595
-0.2055,0.0255,-0.26
-0.205,0.0255,-0.2605
-0.2065,0.0245,-0.261
-0.208,0.022,-0.26
-0.207,0.026,-0.256
-0.2055,0.026,-0.2575
-0.202,0.0235,-0.2575
-0.2035,0.024,-0.259
-0.205,0.026,-0.261
-0.203,0.026,-0.2585
-0.199,0.0275,-0.259
-0.192,0.0295,-0.2595
-0.1945,0.031,-0.258
-0.197,0.0315,-0.259
-0.1945,0.0295,-0.2585
-0.191,0.032,-0.2555
-0.192,0.0335,-0.2555
-0.1965,0.031,-0.257
-0.1965,0.0335,-0.258
-0.196,0.0355,-0.2605
-0.1945,0.032,-0.259
-0.195,0.0315,-0.26
-0.198,0.0325,-0.261
-0.193,0.034,-0.2585
-0.1905,0.0355,-0.257
-0.1905,0.0375,-0.257
-0.191,0.0385,-0.2565
-0.1935,0.0365,-0.2575
-0.1915,0.0365,-0.258
-0.188,0.0385,-0.2545
-0.185,0.0405,-0.253
-0.1835,0.043,-0.254
-0.183,0.0435,-0.2555
-0.1845,0.0425,-0.254
-0.1845,0.042,-0.2545
-0.1825,0.0405,-0.255
-0.179,0.042,-0.254
-0.1805,0.043,-0.254
-0.1845,0.043,-0.2535
-0.186,0.045,-0.2535
-0.183,0.046,-0.254
-0.1805,0.0475,-0.2535
-0.183,0.0505,-0.253
-0.1835,0.05,-0.2525
-0.1805,0.0505,-0.2525
-0.179,0.0545,-0.253
-0.184,0.056,-0.2535
-0.183,0.054,-0.255
-0.178,0.055,-0.256
-0.179,0.057,-0.2555
-0.1775,0.055,-0.2565
-0.1795,0.056,-0.2555
-0.181,0.0575,-0.256
-0.18,0.0585,-0.258
-0.1805,0.0605,-0.2565
-0.177,0.0595,-0.256
-0.175,0.0585,-0.255
-0.172,0.063,-0.2555
-0.1705,0.0655,-0.258
-0.1695,0.065,-0.259
-0.1715,0.066,-0.259
-0.1765,0.0675,-0.2585
-0.174,0.07,-0.257
-0.1725,0.0685,-0.257
-0.1725,0.0705,-0.2565
-0.1695,0.0745,-0.2555
-0.1665,0.0735,-0.257
-0.164,0.074,-0.2565
-0.1615,0.076,-0.255
-0.157,0.0775,-0.255
-0.1575,0.0795,-0.2565
-0.156,0.085,-0.2575
-0.1525,0.0865,-0.2565
-0.1495,0.0875,-0.257
-0.15,0.0885,-0.2585
-0.1545,0.087,-0.2605
-0.155,0.088,-0.2585
-0.1525,0.0895,-0.256
-0.154,0.0935,-0.258
-0.1555,0.091,-0.2565
-0.153,0.09,-0.256
-0.1505,0.093,-0.2555
-0.1465,0.0955,-0.2565
-0.1465,0.1,-0.2565
-0.143,0.101,-0.257
-0.143,0.1,-0.2585
-0.1445,0.101,-0.255
-0.1375,0.1055,-0.255
-0.1315,0.109,-0.253
-0.127,0.1135,-0.2515
-0.124,0.116,-0.253
-0.1245,0.1135,-0.2525
-0.1265,0.116,-0.2515
-0.1245,0.121,-0.252
-0.1215,0.1245,-0.253
-0.1195,0.1265,-0.2515
-0.1155,0.127,-0.25
-0.1165,0.1275,-0.248
-0.118,0.128,-0.2485
-0.1125,0.1335,-0.25
-0.1125,0.14,-0.2475
-0.1125,0.141,-0.246
-0.109,0.144,-0.245
-0.109,0.1475,-0.2445
-0.109,0.1495,-0.244
-0.1085,0.1535,-0.2405
-0.1055,0.158,-0.2395
-0.101,0.1595,-0.24
-0.094,0.163,-0.239
-0.0915,0.171,-0.237
-0.0875,0.175,-0.2375
-0.0795,0.179,-0.24
-0.08,0.1815,-0.2405
-0.0815,0.1845,-0.2405
-0.0785,0.19,-0.24
-0.072,0.1935,-0.2395
-0.07,0.1965,-0.2385
-0.0705,0.2,-0.2345
-0.0665,0.2095,-0.234
-0.0645,0.2145,-0.233
-0.062,0.2165,-0.232
-0.058,0.22,-0.2305
-0.055,0.225,-0.2275
-0.0505,0.232,-0.2285
-0.0445,0.237,-0.23
-0.043,0.2425,-0.228
-0.0425,0.2455,-0.2265
-0.038,0.253,-0.224
-0.031,0.2615,-0.2215
-0.0235,0.264,-0.2215
-0.0185,0.27,-0.2215
-0.016,0.275,-0.22
-0.016,0.2795,-0.216
-0.0105,0.285,-0.217
-0.007,0.2895,-0.217
-0.0035,0.2925,-0.213
0.0025,0.2965,-0.2115
0.0005,0.303,-0.2085
0.001,0.3055,-0.209
0.0045,0.309,-0.2095
0.0075,0.3155,-0.208
0.0085,0.3215,-0.2075
0.01,0.326,-0.2035
0.017,0.3295,-0.2035
0.0215,0.333,-0.204
0.0265,0.338,-0.203
0.031,0.344,-0.2045
0.033,0.3465,-0.2015
0.037,0.348,-0.198
0.043,0.3525,-0.1975
0.0485,0.358,-0.197
0.049,0.363,-0.1955
0.0485,0.363,-0.193
0.0495,0.365,-0.193
0.0515,0.37,-0.19
0.054,0.3745,-0.1905
0.056,0.376,-0.1915
0.0555,0.375,-0.1895
0.056,0.3765,-0.1915
0.0585,0.3795,-0.19
0.059,0.3835,-0.1885
0.059,0.3855,-0.1875
0.062,0.388,-0.1865
0.063,0.389,-0.188
0.066,0.39,-0.186
0.071,0.3935,-0.185
0.0695,0.394,-0.185
0.068,0.395,-0.184
0.0725,0.396,-0.184
0.076,0.397,-0.183
0.075,0.397,-0.184
0.072,0.395,-0.1825
0.0755,0.395,-0.181
0.0745,0.396,-0.179
0.0745,0.3965,-0.1765
0.076,0.395,-0.1755
0.075,0.3935,-0.175
0.0735,0.3915,-0.1745
0.073,0.393,-0.1725
0.0715,0.394,-0.174
0.0645,0.3875,-0.176
0.061,0.3825,-0.176
0.0575,0.38,-0.176
0.055,0.378,-0.1755
0.0545,0.3735,-0.176
0.0555,0.3685,-0.1765
0.052,0.3655,-0.1785
0.045,0.358,-0.181
0.046,0.352,-0.18
0.0445,0.346,-0.18
0.038,0.341,-0.183
0.0335,0.3365,-0.184
0.025,0.33,-0.1835
0.019,0.324,-0.185
0.017,0.316,-0.188
0.013,0.3085,-0.187
0.0085,0.3015,-0.186
0.0025,0.295,-0.188
-0.002,0.289,-0.1915
-0.007,0.281,-0.191
-0.013,0.274,-0.1905
-0.018,0.2675,-0.1915
-0.021,0.265,-0.194
-0.031,0.2555,-0.1975
-0.045,0.235,-0.199
-0.047,0.2295,-0.2015
-0.0465,0.226,-0.2035
-0.0475,0.217,-0.2055
-0.0515,0.211,-0.205
-0.057,0.2045,-0.207
-0.065,0.195,-0.208
-0.073,0.184,-0.209
-0.0755,0.177,-0.2115
-0.0835,0.1715,-0.211
-0.0885,0.165,-0.213
-0.0905,0.1565,-0.214
-0.0965,0.1505,-0.2145
-0.102,0.1445,-0.217
-0.1055,0.1355,-0.221
-0.109,0.131,-0.2225
-0.1145,0.126,-0.223
-0.119,0.12,-0.225
-0.125,0.113,-0.2265
-0.1265,0.106,-0.2285
-0.1245,0.103,-0.231
-0.129,0.098,-0.2315
-0.1355,0.091,-0.232
-0.1345,0.0875,-0.2365
-0.135,0.0845,-0.2385
-0.1405,0.0785,-0.2395
-0.1435,0.0765,-0.2435
-0.149,0.0735,-0.2465
-0.1485,0.067,-0.2475
-0.1495,0.0635,-0.2475
-0.1545,0.0605,-0.249
-0.1575,0.055,-0.249
-0.1595,0.053,-0.248
-0.158,0.0515,-0.248
-0.1595,0.0485,-0.248
-0.1595,0.045,-0.2485
-0.161,0.041,-0.251
-0.17,0.0385,-0.252
-0.176,0.035,-0.2515
-0.1745,0.0335,-0.2535
-0.168,0.033,-0.253
-0.164,0.0345,-0.2525
-0.1625,0.0325,-0.2545
-0.167,0.029,-0.256
-0.1705,0.0285,-0.2575
-0.1705,0.0265,-0.2585
-0.1695,0.0245,-0.26
-0.17,0.0235,-0.259
-0.174,0.023,-0.259
-0.1745,0.021,-0.2585
-0.1765,0.0195,-0.2605
-0.1765,0.0195,-0.2645
-0.181,0.016,-0.2615
-0.1835,0.0135,-0.2615
-0.18,0.0125,-0.2635
-0.181,0.013,-0.2615
-0.1795,0.015,-0.2605
-0.18,0.0145,-0.2605
-0.1795,0.0125,-0.2615
-0.174,0.0135,-0.2605
-0.1725,0.014,-0.26
-0.174,0.0145,-0.26
-0.173,0.014,-0.26
-0.1725,0.0115,-0.2625
-0.175,0.0105,-0.2635
-0.1795,0.0085,-0.2635
-0.181,0.0075,-0.264
-0.177,0.007,-0.2635
-0.176,0.0075,-0.2635
-0.1745,0.007,-0.267
-0.1735,0.0065,-0.266
-0.173,0.0065,-0.2655
-0.172,0.0055,-0.2645
-0.177,0.004,-0.263
-0.181,0.003,-0.265
-0.1785,0.004,-0.264
-0.178,0.003,-0.2625
-0.181,0.0035,-0.2645
-0.18,0.001,-0.266
-0.1815,-0.0035,-0.266
-0.181,-0.003,-0.269
-0.177,-0.0025,-0.271
-0.18,-0.002,-0.269
-0.179,-0.0035,-0.269
-0.177,-0.0025,-0.269
-0.178,-0.0045,-0.2685
-0.177,-0.004,-0.268
-0.1775,-0.001,-0.267
-0.177,-0.002,-0.267
-0.178,0.0015,-0.268
-0.178,0.0015,-0.27
-0.18,-0.0005,-0.269
-0.1805,-0.005,-0.269
-0.1805,-0.0075,-0.2685
-0.1815,-0.0055,-0.2695
-0.1825,-0.006,-0.2695
-0.1885,-0.006,-0.2685
-0.1885,-0.0075,-0.2685
-0.185,-0.0065,-0.2685
-0.1815,-0.0055,-0.2685
-0.181,-0.007,-0.269
-0.184,-0.0035,-0.269
-0.183,-0.003,-0.2685
-0.1825,-0.003,-0.2715
-0.178,-0.004,-0.2705
-0.179,-0.0085,-0.2705
-0.1825,-0.0065,-0.2705
-0.1805,-0.005,-0.2715
-0.18,-0.0065,-0.2695
-0.1795,-0.006,-0.2695
-0.1765,-0.005,-0.2725
-0.1765,-0.0035,-0.2705
-0.179,-0.003,-0.269
-0.182,-0.002,-0.2685
-0.1835,-0.004,-0.2705
-0.1835,-0.0065,-0.2705
-0.1825,-0.007,-0.269
-0.177,-0.0055,-0.2685
-0.1785,-0.0015,-0.268
-0.1865,-0.0045,-0.2675
-0.1845,-0.0095,-0.269
-0.179,-0.004,-0.2675
-0.179,-0.0035,-0.267
-0.178,-0.0055,-0.2685
-0.1785,-0.0045,-0.2695
-0.178,-0.005,-0.2705
-0.177,-0.0025,-0.269
-0.1765,0.001,-0.2705
-0.1775,-0.001,-0.273
-0.1795,-0.0065,-0.27
-0.1775,-0.0055,-0.2685
-0.18,-0.005,-0.269
-0.182,-0.007,-0.2685
-0.184,-0.007,-0.2685
-0.185,-0.0065,-0.2685
-0.1815,-0.007,-0.269
-0.1795,-0.0075,-0.2705
-0.1815,-0.0075,-0.2715
-0.1835,-0.0055,-0.2735
-0.1825,-0.006,-0.2735
-0.178,-0.006,-0.2705
-0.1765,-0.003,-0.2695
-0.1755,-0.0035,-0.269
-0.173,-0.003,-0.268
-0.171,-0.004,-0.2655
-0.1695,-0.002,-0.266
-0.1705,0.0015,-0.2665
-0.171,0.0005,-0.266
-0.171,0.001,-0.2705
-0.169,0.0015,-0.2715
-0.17,0.0005,-0.2675
-0.174,-0.0005,-0.268
-0.1755,0.0005,-0.267
-0.1765,0.0,-0.269
-0.1745,0.002,-0.2715
-0.174,0.002,-0.2705
-0.1745,0.001,-0.2685
-0.177,0.002,-0.2695
-0.1825,-0.0015,-0.2705
-0.1835,-0.001,-0.2705
-0.179,-0.0005,-0.272
-0.172,0.0015,-0.2725
-0.1715,0.0025,-0.2725
-0.1725,0.001,-0.273
-0.1705,0.0005,-0.2735
-0.1695,0.0005,-0.2735
-0.1705,0.001,-0.275
-0.1695,0.0015,-0.2755
-0.167,0.0015,-0.2725
-0.165,0.001,-0.2725
-0.1665,0.0015,-0.274
-0.17,-0.003,-0.276
-0.1705,-0.004,-0.275
-0.178,-0.003,-0.2725
-0.177,-0.003,-0.2725
-0.1705,-0.0015,-0.273
-0.173,-0.003,-0.2735
-0.1735,-0.0025,-0.272
-0.174,-0.002,-0.273
-0.175,-0.0005,-0.273
-0.1755,0.0,-0.273
-0.174,0.001,-0.273
-0.1725,0.0015,-0.273
-0.1735,0.001,-0.2745
-0.173,0.001,-0.276
-0.173,0.001,-0.2765
-0.1715,0.0025,-0.276
-0.167,0.0015,-0.2765
-0.1665,0.0005,-0.2765
-0.165,0.0025,-0.275
-0.1645,0.003,-0.275
-0.1665,0.0025,-0.275
-0.166,0.002,-0.2705
-0.1685,0.001,-0.2715
-0.1715,0.0025,-0.2755
-0.17,0.001,-0.276
-0.168,0.0,-0.276
-0.17,0.001,-0.2755
-0.17,0.0,-0.276
-0.1725,0.0005,-0.2775
-0.1735,0.0005,-0.278
-0.17,0.0015,-0.2775
-0.169,-0.0015,-0.278
-0.17,0.0,-0.2805
-0.1735,0.003,-0.2815
-0.1725,-0.001,-0.28
-0.17,-0.002,-0.2785
-0.167,-0.002,-0.2795
-0.163,-0.002,-0.279
-0.166,0.0,-0.277
-0.166,-0.001,-0.279
-0.1645,0.001,-0.28
-0.163,0.001,-0.279
-0.16,-0.0015,-0.275
-0.162,-0.0015,-0.2755
-0.1655,-0.002,-0.2775
-0.1685,-0.003,-0.2775
-0.1735,-0.0005,-0.2775
-0.172,-0.001,-0.2775
-0.167,-0.0055,-0.2775
-0.1665,-0.0055,-0.278
-0.1685,-0.005,-0.2785
-0.1705,-0.006,-0.281
-0.17,-0.006,-0.2825
-0.1685,-0.0055,-0.281
-0.1625,-0.005,-0.28
-0.1625,-0.006,-0.28
-0.166,-0.005,-0.281
-0.163,-0.0045,-0.282
-0.1655,-0.0065,-0.2815
-0.167,-0.008,-0.2815
-0.1665,-0.0095,-0.282
-0.173,-0.011,-0.28
-0.176,-0.012,-0.281
-0.174,-0.01,-0.2815
-0.175,-0.0065,-0.2785
-0.1695,-0.01,-0.279
-0.1685,-0.013,-0.2785
-0.172,-0.0125,-0.28
-0.17,-0.012,-0.2805
-0.1695,-0.0095,-0.2795
-0.1665,-0.0125,-0.2805
-0.166,-0.015,-0.28
-0.1645,-0.0155,-0.2795
-0.165,-0.016,-0.28
-0.1695,-0.015,-0.28
-0.1695,-0.0155,-0.281
-0.164,-0.013,-0.2825
-0.164,-0.0115,-0.2835
-0.167,-0.013,-0.285
-0.164,-0.0135,-0.284
-0.1625,-0.014,-0.2845
-0.165,-0.013,-0.287
-0.1665,-0.0125,-0.2845
-0.1665,-0.0155,-0.284
-0.1685,-0.015,-0.283
-0.173,-0.016,-0.2845
-0.1735,-0.018,-0.284
-0.174,-0.016,-0.283
-0.1735,-0.0155,-0.284
-0.1745,-0.0175,-0.283
-0.177,-0.0205,-0.2855
-0.1735,-0.0195,-0.2875
-0.1735,-0.02,-0.288
-0.175,-0.022,-0.2865
-0.177,-0.024,-0.288
-0.1805,-0.0235,-0.289
-0.1785,-0.0235,-0.289
-0.1765,-0.025,-0.288
-0.177,-0.025,-0.286
-0.1765,-0.026,-0.2865
-0.177,-0.026,-0.285
-0.1765,-0.0275,-0.286
-0.1735,-0.0285,-0.2855
-0.1765,-0.0275,-0.285
-0.176,-0.0255,-0.286
-0.178,-0.0295,-0.2845
-0.1815,-0.033,-0.2825
-0.18,-0.0285,-0.283
-0.1795,-0.027,-0.2825
-0.1785,-0.026,-0.2835
-0.1805,-0.025,-0.284
-0.1805,-0.0265,-0.2855
-0.181,-0.0265,-0.2875
-0.18,-0.027,-0.285
-0.1775,-0.027,-0.287
-0.177,-0.0285,-0.2875
-0.177,-0.0295,-0.288
-0.1775,-0.029,-0.287
-0.1765,-0.0285,-0.287
-0.1765,-0.0265,-0.2865
-0.176,-0.0265,-0.2855
-0.1795,-0.027,-0.2885
-0.1795,-0.027,-0.2885
-0.1735,-0.0285,-0.288
-0.1745,-0.029,-0.2865
-0.179,-0.0285,-0.285
-0.181,-0.028,-0.2875
-0.179,-0.028,-0.287
-0.1795,-0.0295,-0.2855
-0.1785,-0.03,-0.287
-0.176,-0.0295,-0.287
-0.177,-0.029,-0.286
-0.175,-0.0275,-0.2855
-0.172,-0.0275,-0.286
-0.1695,-0.027,-0.2875
-0.1685,-0.027,-0.287
-0.169,-0.025,-0.287
-0.1695,-0.0245,-0.2865
-0.1705,-0.0245,-0.2885
-0.1725,-0.0235,-0.2885
-0.177,-0.026,-0.2855
-0.18,-0.0255,-0.284
-0.1775,-0.026,-0.284
-0.1765,-0.027,-0.2845
-0.1745,-0.0255,-0.284
-0.173,-0.026,-0.2825
-0.175,-0.03,-0.2825
-0.175,-0.0305,-0.282
-0.1745,-0.0285,-0.282
-0.175,-0.0305,-0.2815
-0.174,-0.029,-0.2805
-0.172,-0.0265,-0.2835
-0.17,-0.0275,-0.285
-0.1715,-0.0295,-0.284
-0.1735,-0.03,-0.284
-0.1705,-0.028,-0.282
-0.1705,-0.0265,-0.2835
-0.175,-0.031,-0.2845
-0.1785,-0.0325,-0.285
-0.177,-0.0315,-0.2855
-0.178,-0.029,-0.285
-0.1775,-0.03,-0.284
-0.1795,-0.035,-0.2835
-0.18,-0.034,-0.2855
-0.1775,-0.032,-0.2835
-0.1775,-0.0305,-0.283
-0.1745,-0.031,-0.2845
-0.1735,-0.0315,-0.283
-0.1725,-0.0305,-0.2825
-0.1725,-0.0325,-0.2825
-0.171,-0.032,-0.2835
-0.169,-0.033,-0.285
-0.1725,-0.033,-0.2825
-0.176,-0.034,-0.281
-0.177,-0.0345,-0.281
-0.171,-0.034,-0.2825
-0.1615,-0.033,-0.283
-0.1645,-0.0305,-0.2815
-0.17,-0.032,-0.283
-0.1695,-0.0325,-0.2825
-0.1705,-0.034,-0.282
-0.1715,-0.0345,-0.2805
-0.1735,-0.035,-0.2805
-0.175,-0.0345,-0.2815
-0.173,-0.032,-0.279
-0.1775,-0.034,-0.2805
-0.1825,-0.036,-0.282
-0.181,-0.0375,-0.2815
-0.18,-0.0395,-0.2815
-0.1785,-0.035,-0.2815
-0.179,-0.03,-0.283
-0.1725,-0.0345,-0.284
-0.1695,-0.037,-0.2845
-0.1735,-0.038,-0.2835
-0.173,-0.0405,-0.284
-0.1705,-0.0375,-0.285
-0.168,-0.035,-0.286
-0.174,-0.0375,-0.2865
-0.177,-0.041,-0.2865
-0.1735,-0.039,-0.2845
-0.1735,-0.0385,-0.285
-0.1745,-0.04,-0.2865
-0.1745,-0.039,-0.285
-0.174,-0.039,-0.2845
-0.176,-0.039,-0.281
-0.177,-0.0375,-0.2815
-0.177,-0.0385,-0.284
-0.172,-0.0365,-0.282
-0.166,-0.0325,-0.2805
-0.17,-0.035,-0.2815
-0.175,-0.0365,-0.282
-0.1745,-0.0375,-0.282
-0.173,-0.0365,-0.2825
-0.1725,-0.0345,-0.281
-0.172,-0.036,-0.2795
-0.171,-0.0345,-0.2795
-0.1675,-0.035,-0.281
-0.166,-0.0345,-0.281
-0.166,-0.0325,-0.2795
-0.1615,-0.0305,-0.2785
-0.161,-0.0315,-0.2765
-0.1625,-0.034,-0.274
-0.1625,-0.0335,-0.273
-0.163,-0.0325,-0.2735
-0.1655,-0.031,-0.272
-0.1625,-0.0305,-0.271
-0.16,-0.03,-0.2695
-0.162,-0.029,-0.2695
-0.159,-0.0285,-0.271
-0.155,-0.0245,-0.2685
-0.1505,-0.0215,-0.2675
-0.1445,-0.0215,-0.2675
-0.1415,-0.0205,-0.2635
-0.139,-0.0175,-0.2615
-0.1345,-0.0125,-0.2615
-0.133,-0.01,-0.2625
-0.134,-0.0075,-0.262
-0.1305,-0.0065,-0.2615
-0.1275,-0.0055,-0.2625
-0.129,-0.0015,-0.2635
-0.1295,-0.0035,-0.265
-0.1295,-0.0045,-0.265
-0.134,-0.0035,-0.264
-0.1365,-0.0025,-0.267
-0.1345,-0.002,-0.266
-0.1325,-0.0025,-0.2655
-0.132,0.0,-0.27
-0.129,0.0055,-0.2735
-0.1245,0.0065,-0.2745
-0.1225,0.0075,-0.275
-0.1155,0.011,-0.2775
-0.1095,0.0145,-0.28
-0.1025,0.0215,-0.282
-0.0955,0.0285,-0.2835
-0.095,0.027,-0.284
-0.092,0.027,-0.2855
-0.0915,0.0285,-0.2855
-0.092,0.0275,-0.284
-0.0885,0.0285,-0.2845
-0.0865,0.0285,-0.285
-0.09,0.025,-0.285
-0.097,0.0215,-0.2865
-0.1,0.017,-0.29
-0.104,0.011,-0.2925
-0.1085,0.006,-0.292
-0.107,0.002,-0.2905
-0.1065,0.001,-0.2865
-0.1095,0.0025,-0.2845
-0.11,-0.001,-0.2855
-0.1115,-0.0015,-0.287
-0.1085,-0.0005,-0.2865
-0.109,-0.003,-0.2855
-0.1105,-0.004,-0.2865
-0.111,-0.004,-0.285
-0.109,-0.0035,-0.286
-0.1025,-0.002,-0.289
-0.102,-0.0015,-0.2875
-0.0995,0.0,-0.285
-0.098,0.0,-0.283
-0.0975,-0.001,-0.281
-0.097,0.0005,-0.2795
-0.097,0.004,-0.277
-0.092,0.0075,-0.274
-0.0915,0.01,-0.2725
-0.0945,0.012,-0.2715
-0.098,0.01,-0.27
-0.0995,0.0095,-0.2715
-0.098,0.0105,-0.273
-0.099,0.0075,-0.2755
-0.102,0.0075,-0.272
-0.102,0.006,-0.2725
-0.104,0.003,-0.278
-0.1055,0.0,-0.276
-0.108,-0.0015,-0.275
-0.1145,-0.0025,-0.2725
-0.1165,-0.0065,-0.2735
-0.1205,-0.0095,-0.273
-0.127,-0.0105,-0.271
-0.134,-0.014,-0.2705
-0.144,-0.021,-0.2685
-0.1525,-0.0315,-0.2725
-0.162,-0.038,-0.2755
-0.1705,-0.04,-0.275
-0.176,-0.0405,-0.2755
-0.1765,-0.0425,-0.2765
-0.1735,-0.0445,-0.2755
-0.1735,-0.046,-0.276
-0.174,-0.0475,-0.277
-0.176,-0.049,-0.277
-0.1745,-0.052,-0.2795
-0.1775,-0.052,-0.279
-0.181,-0.052,-0.2785
-0.18,-0.0505,-0.28
-0.182,-0.055,-0.2785
-0.1835,-0.0595,-0.281
-0.1825,-0.057,-0.284
-0.181,-0.056,-0.283
-0.1835,-0.059,-0.282
-0.184,-0.059,-0.2795
-0.186,-0.058,-0.2785
-0.1875,-0.058,-0.281
-0.187,-0.058,-0.2815
-0.1895,-0.0595,-0.281
-0.189,-0.06,-0.2805
-0.187,-0.0595,-0.278
-0.1905,-0.057,-0.279
-0.1935,-0.0535,-0.2785
-0.192,-0.055,-0.2795
-0.1885,-0.0595,-0.281
-0.1875,-0.061,-0.2815
-0.189,-0.0585,-0.282
-0.188,-0.057,-0.282
-0.1835,-0.055,-0.2815
-0.183,-0.054,-0.2795
-0.183,-0.0535,-0.2805
-0.184,-0.0515,-0.2805
-0.181,-0.051,-0.281
-0.176,-0.051,-0.2805
-0.182,-0.051,-0.2795
-0.1865,-0.053,-0.28
-0.187,-0.0535,-0.2805
-0.19,-0.0535,-0.28
-0.191,-0.0525,-0.2775
-0.192,-0.052,-0.2785
-0.191,-0.0505,-0.278
-0.1925,-0.048,-0.2765
-0.1915,-0.049,-0.275
-0.1945,-0.0455,-0.275
-0.1955,-0.041,-0.273
-0.1885,-0.037,-0.2685
-0.1865,-0.031,-0.263
-0.181,-0.028,-0.256
-0.177,-0.018,-0.2495
-0.1765,-0.009,-0.24
-0.178,-0.0065,-0.229
-0.1815,0.001,-0.2205
-0.177,0.008,-0.208
-0.1735,0.0165,-0.1935
-0.171,0.03,-0.1825
-0.162,0.048,-0.171
-0.1385,0.0875,-0.1585
-0.1085,0.1325,-0.1455
-0.084,0.167,-0.135
-0.046,0.2225,-0.1245
-0.012,0.2805,-0.111
0.015,0.3345,-0.0995
0.058,0.402,-0.086
0.101,0.4705,-0.0755
0.15,0.548,-0.0645
0.191,0.607,-0.0585
0.211,0.6415,-0.057
0.2365,0.671,-0.0555
0.257,0.6865,-0.057
0.267,0.7,-0.056
0.286,0.7255,-0.059
0.3035,0.7555,-0.0685
0.309,0.772,-0.075
0.3195,0.7945,-0.078
0.327,0.8245,-0.085
0.318,0.843,-0.0935
0.308,0.851,-0.1075
0.2875,0.8355,-0.122
0.271,0.817,-0.138
0.2605,0.791,-0.156
0.2325,0.7465,-0.1595
0.196,0.676,-0.171
0.119,0.5605,-0.1925
0.0475,0.456,-0.2355
0.005,0.3705,-0.2965
-0.0365,0.2745,-0.343
-0.076,0.1705,-0.3795
-0.109,0.0735,-0.4145
-0.134,-0.012,-0.448
-0.1735,-0.1215,-0.475
-0.22,-0.239,-0.4905
-0.2645,-0.328,-0.4955
-0.284,-0.374,-0.4975
-0.293,-0.3915,-0.4955
-0.299,-0.3865,-0.49
-0.297,-0.3645,-0.4805
-0.2915,-0.3435,-0.4655
-0.2765,-0.316,-0.451
-0.27,-0.2945,-0.4415
-0.269,-0.2815,-0.4325
-0.2715,-0.267,-0.419
-0.272,-0.254,-0.4025
-0.266,-0.2375,-0.384
-0.256,-0.2135,-0.368
-0.2485,-0.198,-0.3585
-0.2455,-0.189,-0.354
-0.24,-0.176,-0.3455
-0.2375,-0.161,-0.336
-0.232,-0.144,-0.3255
-0.222,-0.1285,-0.316
-0.2105,-0.1115,-0.3075
-0.2045,-0.0985,-0.302
-0.2045,-0.088,-0.297
-0.1995,-0.08,-0.2925
-0.1925,-0.072,-0.289
-0.184,-0.064,-0.2835
-0.1815,-0.06,-0.28
-0.183,-0.057,-0.276
-0.1805,-0.055,-0.2755
-0.1805,-0.0535,-0.2745
-0.178,-0.0515,-0.2745
-0.177,-0.0515,-0.2725
-0.1805,-0.051,-0.2695
-0.1825,-0.0495,-0.271
-0.1855,-0.0495,-0.273
-0.1865,-0.047,-0.273
-0.1825,-0.0475,-0.2725
-0.179,-0.0505,-0.2725
-0.1755,-0.0475,-0.273
-0.1735,-0.0445,-0.2725
-0.1725,-0.0465,-0.269
-0.17,-0.0465,-0.2695
-0.17,-0.045,-0.2685
-0.1695,-0.0445,-0.2695
-0.172,-0.0455,-0.27
-0.172,-0.0465,-0.2685
-0.169,-0.044,-0.27
-0.171,-0.0435,-0.2685
-0.173,-0.0445,-0.266
-0.174,-0.044,-0.2645
-0.173,-0.0445,-0.263
-0.1735,-0.0445,-0.262
-0.174,-0.0455,-0.2635
-0.1735,-0.046,-0.264
-0.1775,-0.0445,-0.2645
-0.18,-0.0425,-0.2655
-0.1785,-0.041,-0.264
-0.174,-0.042,-0.267
-0.167,-0.0395,-0.266
-0.167,-0.0385,-0.264
-0.164,-0.037,-0.266
-0.163,-0.0365,-0.264
-0.164,-0.037,-0.264
-0.162,-0.034,-0.263
-0.1595,-0.0335,-0.2635
-0.1545,-0.034,-0.2645
-0.1545,-0.036,-0.263
-0.1595,-0.0355,-0.2625
-0.166,-0.0345,-0.2615
-0.1665,-0.0345,-0.2615
-0.1665,-0.031,-0.262
-0.1625,-0.0265,-0.259
-0.1575,-0.0315,-0.2585
-0.159,-0.034,-0.2605
-0.1575,-0.032,-0.2615
-0.158,-0.0325,-0.263
-0.1565,-0.03,-0.2625
-0.157,-0.0295,-0.263
-0.1595,-0.029,-0.2615
-0.16,-0.03,-0.261
-0.1635,-0.0295,-0.261
-0.161,-0.026,-0.261
-0.159,-0.025,-0.264
-0.16,-0.0235,-0.264
-0.159,-0.0225,-0.263
-0.161,-0.023,-0.2635
-0.16,-0.0225,-0.263
-0.156,-0.021,-0.261
-0.153,-0.019,-0.2605
-0.15,-0.0185,-0.2605
-0.1505,-0.0185,-0.259
-0.1545,-0.019,-0.2575
-0.1565,-0.021,-0.2585
-0.156,-0.0215,-0.2595
-0.1565,-0.021,-0.258
-0.1565,-0.0185,-0.2565
-0.1565,-0.017,-0.257
-0.154,-0.0175,-0.2555
-0.15,-0.0155,-0.2555
-0.1495,-0.014,-0.2575
-0.1495,-0.012,-0.2565
-0.15,-0.0105,-0.2565
-0.1465,-0.011,-0.2585
-0.141,-0.01,-0.2565
-0.139,-0.0085,-0.2555
-0.1395,-0.0065,-0.2585
-0.1395,-0.005,-0.2575
-0.139,-0.006,-0.256
-0.142,-0.0065,-0.256
-0.1425,-0.006,-0.2545
-0.1425,-0.0025,-0.254
-0.143,-0.001,-0.2535
-0.1425,-0.0035,-0.255
-0.1395,-0.003,-0.256
-0.1385,-0.0025,-0.2555
-0.1385,0.0015,-0.2545
-0.136,0.0025,-0.254
-0.1355,0.002,-0.256
-0.135,0.0035,-0.253
-0.1325,0.0065,-0.252
-0.1325,0.0105,-0.2555
-0.131,0.0105,-0.255
-0.1275,0.013,-0.2565
-0.1285,0.013,-0.2565
-0.129,0.013,-0.255
-0.129,0.0175,-0.2525
-0.1285,0.018,-0.2525
-0.1235,0.0205,-0.252
-0.1215,0.023,-0.2505
-0.121,0.0245,-0.251
-0.1205,0.028,-0.252
-0.124,0.028,-0.251
-0.1235,0.0255,-0.248
-0.122,0.026,-0.2485
-0.119,0.0315,-0.248
-0.1125,0.0365,-0.249
-0.1125,0.0385,-0.25
-0.115,0.039,-0.2515
-0.112,0.0385,-0.2515
-0.109,0.0395,-0.2505
-0.1085,0.042,-0.251
-0.106,0.043,-0.2495
-0.1025,0.044,-0.252
-0.1015,0.0485,-0.252
-0.1015,0.052,-0.2505
-0.1005,0.0535,-0.251
-0.0975,0.0555,-0.2495
-0.0965,0.057,-0.2485
-0.094,0.0605,-0.2475
-0.09,0.065,-0.2465
-0.091,0.0655,-0.246
-0.0955,0.0675,-0.243
-0.092,0.071,-0.24
-0.0875,0.073,-0.241
-0.088,0.0745,-0.2405
-0.0845,0.0795,-0.2395
-0.082,0.085,-0.2405
-0.0775,0.088,-0.2405
-0.073,0.0875,-0.24
-0.073,0.089,-0.2395
-0.07,0.095,-0.239
-0.0635,0.0985,-0.2385
-0.0585,0.107,-0.237
-0.0585,0.109,-0.2375
-0.0565,0.1095,-0.237
-0.0545,0.1145,-0.235
-0.052,0.1165,-0.235
-0.05,0.1225,-0.2325
-0.0495,0.1265,-0.2305
-0.0435,0.1345,-0.2315
-0.04,0.1395,-0.23
-0.0365,0.1385,-0.2265
-0.0325,0.143,-0.2255
-0.029,0.146,-0.226
-0.0265,0.154,-0.2235
-0.024,0.1605,-0.2225
-0.023,0.1665,-0.222
-0.019,0.174,-0.2245
-0.0135,0.17,-0.2225
-0.0105,0.174,-0.218
-0.007,0.181,-0.2175
-0.0035,0.1865,-0.217
0.001,0.193,-0.2155
0.0035,0.1955,-0.2145
0.007,0.2025,-0.2135
0.013,0.2075,-0.212
0.0165,0.214,-0.211
0.018,0.2205,-0.208
0.0235,0.2255,-0.2065
0.028,0.2305,-0.2065
0.029,0.236,-0.2055
0.032,0.2435,-0.204
0.035,0.248,-0.203
0.0395,0.2515,-0.202
0.043,0.2565,-0.199
0.0435,0.261,-0.2
0.0475,0.2645,-0.1995
0.052,0.269,-0.199
0.054,0.2725,-0.1965
0.059,0.275,-0.196
0.0625,0.2795,-0.1975
0.062,0.2845,-0.1965
0.0665,0.2885,-0.194
0.07,0.2915,-0.1915
0.0735,0.295,-0.188
0.0775,0.298,-0.187
0.0795,0.3015,-0.188
0.08,0.3035,-0.1855
0.082,0.305,-0.1855
0.0855,0.3055,-0.1845
0.084,0.3085,-0.183
0.0845,0.312,-0.182
0.088,0.3145,-0.179
0.09,0.3185,-0.1785
0.0915,0.32,-0.1785
0.0945,0.322,-0.1785
0.0965,0.325,-0.1775
0.0985,0.325,-0.178
0.1005,0.3255,-0.1765
0.0975,0.326,-0.175
0.097,0.3285,-0.1755
0.1005,0.3315,-0.175
0.1025,0.332,-0.1755
0.1065,0.335,-0.1745
0.11,0.3365,-0.1755
0.1115,0.3365,-0.1735
0.11,0.3365,-0.1715
0.107,0.336,-0.17
0.1065,0.3345,-0.1675
0.1055,0.334,-0.168
0.1025,0.335,-0.166
0.1015,0.332,-0.1645
0.102,0.3325,-0.1645
0.1015,0.332,-0.163
0.0985,0.33,-0.162
0.097,0.326,-0.163
0.0955,0.321,-0.165
0.0925,0.3185,-0.166
0.0885,0.316,-0.1675
0.085,0.3125,-0.168
0.083,0.305,-0.167
0.0825,0.302,-0.1695
0.078,0.3005,-0.17
0.073,0.2955,-0.169
0.0715,0.29,-0.171
0.0685,0.282,-0.1715
0.06,0.277,-0.1715
0.056,0.2745,-0.171
0.0545,0.2675,-0.1725
0.047,0.259,-0.175
0.037,0.251,-0.1745
0.0305,0.243,-0.1745
0.0275,0.2365,-0.1765
0.024,0.229,-0.177
0.017,0.2205,-0.178
0.01,0.2135,-0.179
0.0075,0.207,-0.1805
0.004,0.2005,-0.1825
-0.0015,0.193,-0.1835
-0.0065,0.183,-0.185
-0.016,0.174,-0.187
-0.0225,0.168,-0.1885
-0.0225,0.161,-0.1905
-0.0245,0.1545,-0.191
-0.033,0.147,-0.194
-0.042,0.1385,-0.1955
-0.046,0.1315,-0.194
-0.053,0.1245,-0.1955
-0.0575,0.12,-0.199
-0.061,0.1135,-0.201
-0.069,0.1035,-0.201
-0.0755,0.0955,-0.202
-0.078,0.09,-0.2045
-0.0795,0.0835,-0.2055
-0.0825,0.078,-0.209
-0.0835,0.0735,-0.2125
-0.0885,0.068,-0.2125
-0.0935,0.0605,-0.215
-0.0955,0.052,-0.2175
-0.1005,0.0475,-0.2175
-0.102,0.043,-0.2185
-0.104,0.038,-0.2205
-0.1125,0.032,-0.2215
-0.114,0.0285,-0.222
-0.1165,0.027,-0.223
-0.122,0.02,-0.2245
-0.123,0.016,-0.2245
-0.1235,0.015,-0.2255
-0.1255,0.0095,-0.2265
-0.13,0.005,-0.2285
-0.132,0.0025,-0.2295
-0.135,-0.002,-0.2305
-0.136,-0.006,-0.2305
-0.136,-0.0075,-0.231
-0.134,-0.0085,-0.2345
-0.132,-0.007,-0.236
-0.1375,-0.0085,-0.2385
-0.137,-0.014,-0.238
-0.137,-0.018,-0.2365
-0.1395,-0.019,-0.2385
-0.1385,-0.021,-0.239
-0.1415,-0.0215,-0.2405
-0.1455,-0.02,-0.241
-0.1445,-0.022,-0.239
-0.1435,-0.025,-0.2415
-0.1425,-0.0275,-0.2405
-0.143,-0.028,-0.239
-0.145,-0.027,-0.239
-0.1465,-0.0285,-0.241
-0.148,-0.03,-0.242
-0.148,-0.0325,-0.2405
-0.1525,-0.0325,-0.2415
-0.152,-0.031,-0.242
-0.149,-0.0315,-0.243
-0.1495,-0.034,-0.2425
-0.1495,-0.0355,-0.243
-0.151,-0.0335,-0.2435
-0.1485,-0.036,-0.243
-0.146,-0.0365,-0.243
-0.1455,-0.035,-0.2425
-0.145,-0.039,-0.244
-0.1465,-0.0395,-0.245
-0.1445,-0.038,-0.2445
-0.144,-0.0395,-0.246
-0.148,-0.0405,-0.247
-0.1515,-0.0425,-0.248
-0.152,-0.0415,-0.247
-0.149,-0.042,-0.2455
-0.148,-0.0435,-0.247
-0.1525,-0.042,-0.247
-0.1535,-0.039,-0.2445
-0.151,-0.042,-0.245
-0.1515,-0.0485,-0.2465
-0.151,-0.0495,-0.2445
-0.1495,-0.048,-0.246
-0.148,-0.046,-0.247
-0.146,-0.046,-0.246
-0.1475,-0.047,-0.248
-0.1505,-0.05,-0.247
-0.1485,-0.0515,-0.247
-0.1465,-0.052,-0.2475
-0.147,-0.0525,-0.248
-0.149,-0.051,-0.249
-0.1495,-0.05,-0.248
-0.149,-0.0515,-0.249
-0.15,-0.053,-0.2475
-0.1495,-0.052,-0.2475
-0.153,-0.0535,-0.2465
-0.157,-0.0565,-0.248
-0.156,-0.0565,-0.248
-0.1565,-0.0555,-0.246
-0.1565,-0.056,-0.2475
-0.156,-0.055,-0.248
-0.158,-0.054,-0.249
-0.159,-0.052,-0.2505
-0.1565,-0.052,-0.252
-0.151,-0.051,-0.253
-0.149,-0.0515,-0.2515
-0.15,-0.0525,-0.2465
-0.1515,-0.0525,-0.2475
-0.153,-0.0545,-0.2495
-0.153,-0.0535,-0.2505
-0.1535,-0.0535,-0.2515
-0.1535,-0.053,-0.25
-0.1555,-0.0535,-0.2515
-0.1525,-0.054,-0.251
-0.151,-0.054,-0.2495
-0.1535,-0.052,-0.25
-0.1525,-0.0505,-0.2495
-0.1535,-0.0515,-0.2495
-0.1495,-0.05,-0.2505
-0.145,-0.0495,-0.25
-0.143,-0.047,-0.248
-0.1455,-0.0485,-0.248
-0.1495,-0.0525,-0.248
-0.1505,-0.051,-0.2485
-0.148,-0.0505,-0.249
-0.144,-0.05,-0.2515
-0.1405,-0.0505,-0.251
-0.1395,-0.051,-0.2495
-0.141,-0.05,-0.2525
-0.1425,-0.05,-0.253
-0.145,-0.05,-0.2515
-0.147,-0.048,-0.25
-0.145,-0.0465,-0.2515
-0.142,-0.0485,-0.251
-0.1465,-0.0485,-0.25
-0.15,-0.0495,-0.25
-0.1485,-0.0495,-0.25
-0.148,-0.048,-0.252
-0.1515,-0.0485,-0.25
-0.1535,-0.049,-0.249
-0.1515,-0.049,-0.25
-0.15,-0.0495,-0.25
-0.1495,-0.0485,-0.2515
-0.15,-0.047,-0.251
-0.1475,-0.0465,-0.2525
-0.1465,-0.0475,-0.2525
-0.147,-0.049,-0.25
-0.146,-0.0485,-0.252
-0.1445,-0.048,-0.2525
-0.1445,-0.049,-0.252
-0.143,-0.049,-0.253
-0.143,-0.046,-0.2525
-0.1455,-0.0465,-0.2515
-0.1445,-0.0485,-0.251
-0.1425,-0.048,-0.25
-0.142,-0.0475,-0.2485
-0.142,-0.047,-0.248
-0.1435,-0.047,-0.249
-0.146,-0.045,-0.249
-0.145,-0.045,-0.2475
-0.143,-0.0445,-0.25
-0.1425,-0.0445,-0.2505
-0.143,-0.0465,-0.25
-0.143,-0.0445,-0.2505
-0.1425,-0.044,-0.251
-0.1445,-0.044,-0.251
-0.146,-0.0435,-0.251
-0.1465,-0.0435,-0.252
-0.146,-0.044,-0.25
-0.141,-0.0435,-0.253
-0.139,-0.045,-0.2535
-0.1395,-0.0455,-0.251
-0.1415,-0.044,-0.253
-0.143,-0.0445,-0.253
-0.1435,-0.0445,-0.2525
-0.1465,-0.0415,-0.2515
-0.146,-0.04,-0.252
-0.1475,-0.0415,-0.2515
-0.1525,-0.0405,-0.2485
-0.1525,-0.0425,-0.2505
-0.1505,-0.046,-0.2525
-0.1505,-0.046,-0.253
-0.151,-0.0445,-0.2515
-0.147,-0.0425,-0.251
-0.143,-0.0415,-0.2535
-0.14,-0.043,-0.256
-0.143,-0.044,-0.2575
-0.1475,-0.045,-0.256
-0.148,-0.047,-0.2555
-0.146,-0.047,-0.2555
-0.1435,-0.046,-0.254
-0.145,-0.0465,-0.254
-0.148,-0.0475,-0.256
-0.147,-0.0475,-0.258
-0.1475,-0.048,-0.257
-0.1515,-0.0465,-0.2555
-0.153,-0.0455,-0.2575
-0.153,-0.046,-0.2595
-0.1545,-0.0465,-0.259
-0.153,-0.046,-0.258
-0.149,-0.0425,-0.258
-0.1435,-0.043,-0.2605
-0.1425,-0.0485,-0.2625
-0.146,-0.049,-0.2605
-0.1435,-0.048,-0.2585
-0.1395,-0.046,-0.2595
-0.1395,-0.0455,-0.2585
-0.14,-0.0465,-0.259
-0.14,-0.0455,-0.2585
-0.1395,-0.045,-0.259
-0.139,-0.047,-0.2605
-0.139,-0.0465,-0.2595
-0.1415,-0.046,-0.26
-0.143,-0.048,-0.2595
-0.142,-0.0465,-0.26
-0.145,-0.047,-0.2595
-0.1465,-0.0475,-0.26
-0.146,-0.0455,-0.26
-0.146,-0.0445,-0.2585
-0.1455,-0.0455,-0.2595
-0.143,-0.0485,-0.262
-0.145,-0.0505,-0.2625
-0.151,-0.051,-0.262
-0.1505,-0.0495,-0.2625
-0.147,-0.0495,-0.2635
-0.1455,-0.0515,-0.2655
-0.1455,-0.053,-0.264
-0.145,-0.0525,-0.2635
-0.1425,-0.0515,-0.263
-0.143,-0.052,-0.263
-0.1425,-0.0525,-0.264
-0.1425,-0.054,-0.261
-0.1415,-0.0535,-0.261
-0.142,-0.0535,-0.2615
-0.1465,-0.053,-0.2605
-0.1465,-0.0535,-0.2615
-0.1455,-0.054,-0.2635
-0.147,-0.0535,-0.2645
-0.149,-0.0545,-0.2645
-0.149,-0.056,-0.264
-0.151,-0.054,-0.2625
-0.1485,-0.0555,-0.262
-0.1465,-0.0575,-0.2645
-0.1505,-0.0565,-0.2645
-0.1495,-0.059,-0.264
-0.1495,-0.0595,-0.2665
-0.1465,-0.0575,-0.266
-0.1425,-0.0565,-0.2655
-0.142,-0.06,-0.264
-0.144,-0.06,-0.263
-0.1435,-0.0595,-0.264
-0.1415,-0.0615,-0.265
-0.144,-0.0595,-0.2665
-0.1445,-0.0595,-0.267
-0.145,-0.061,-0.2655
-0.1485,-0.0605,-0.266
-0.149,-0.06,-0.2665
-0.149,-0.061,-0.2665
-0.1495,-0.062,-0.2665
-0.15,-0.0625,-0.267
-0.1495,-0.064,-0.268
-0.15,-0.063,-0.269
-0.1505,-0.0605,-0.2695
-0.1495,-0.062,-0.2705
-0.1485,-0.0625,-0.2705
-0.1475,-0.062,-0.27
-0.146,-0.0615,-0.2725
-0.144,-0.063,-0.2725
-0.145,-0.064,-0.272
-0.142,-0.062,-0.2715
-0.1415,-0.0615,-0.2715
-0.1425,-0.0635,-0.2715
-0.1425,-0.0645,-0.2715
-0.1465,-0.064,-0.2715
-0.146,-0.064,-0.2695
-0.1465,-0.064,-0.2695
-0.1495,-0.0635,-0.271
-0.1485,-0.065,-0.2725
-0.15,-0.068,-0.271
-0.1525,-0.0685,-0.2675
-0.151,-0.068,-0.27
-0.1485,-0.068,-0.2705
-0.1465,-0.068,-0.269
-0.1515,-0.068,-0.2685
-0.1525,-0.0705,-0.2685
-0.149,-0.073,-0.269
-0.1495,-0.0735,-0.271
-0.1495,-0.0735,-0.2715
-0.148,-0.072,-0.269
-0.148,-0.071,-0.2705
-0.15,-0.0705,-0.27
-0.1465,-0.0705,-0.2705
-0.14,-0.07,-0.2665
-0.139,-0.0685,-0.266
-0.1475,-0.069,-0.2675
-0.1505,-0.069,-0.2665
-0.151,-0.069,-0.2685
-0.1535,-0.0705,-0.2675
-0.15,-0.0715,-0.2675
-0.148,-0.071,-0.2665
-0.1485,-0.0695,-0.268
-0.1475,-0.071,-0.269
-0.147,-0.0715,-0.2685
-0.1465,-0.071,-0.27
-0.1455,-0.0705,-0.269
-0.1465,-0.0685,-0.271
-0.15,-0.0705,-0.2705
-0.1495,-0.073,-0.269
-0.1495,-0.0715,-0.269
-0.147,-0.069,-0.2705
-0.146,-0.071,-0.272
-0.1505,-0.073,-0.2705
-0.15,-0.071,-0.27
-0.15,-0.071,-0.2685
-0.153,-0.0695,-0.2685
-0.156,-0.0705,-0.2715
-0.1555,-0.069,-0.2725
-0.1545,-0.0685,-0.273
-0.157,-0.0745,-0.2725
-0.16,-0.074,-0.27
-0.159,-0.0745,-0.2735
-0.1565,-0.0765,-0.275
-0.156,-0.0765,-0.273
-0.1565,-0.075,-0.273
-0.156,-0.075,-0.2735
-0.1545,-0.076,-0.2745
-0.15,-0.0745,-0.274
-0.1495,-0.076,-0.2755
-0.153,-0.076,-0.2755
-0.1545,-0.0755,-0.276
-0.1555,-0.0775,-0.275
-0.1525,-0.076,-0.273
-0.1535,-0.0765,-0.2735
-0.156,-0.078,-0.274
-0.1575,-0.0785,-0.2745
-0.159,-0.077,-0.2725
-0.1555,-0.0765,-0.274
-0.1535,-0.0785,-0.2745
-0.1535,-0.077,-0.2725
-0.157,-0.0755,-0.272
-0.1585,-0.076,-0.2725
-0.156,-0.0745,-0.2735
-0.155,-0.0745,-0.2725
-0.1535,-0.076,-0.2725
-0.155,-0.074,-0.2715
-0.156,-0.0755,-0.2715
-0.1535,-0.0775,-0.2725
-0.1525,-0.0755,-0.273
-0.1515,-0.0775,-0.2725
-0.1515,-0.079,-0.2715
-0.1505,-0.079,-0.271
-0.1515,-0.0795,-0.2715
-0.15,-0.079,-0.272
-0.1495,-0.0785,-0.2695
-0.1495,-0.079,-0.2695
-0.1525,-0.0785,-0.2705
-0.157,-0.078,-0.2705
-0.1575,-0.0785,-0.2695
-0.158,-0.0785,-0.269
-0.1585,-0.078,-0.269
-0.158,-0.079,-0.27
-0.158,-0.08,-0.272
-0.158,-0.081,-0.2725
-0.1555,-0.0805,-0.274
-0.157,-0.081,-0.2755
-0.157,-0.083,-0.273
-0.1535,-0.0825,-0.272
-0.153,-0.0815,-0.275
-0.1535,-0.0805,-0.2745
-0.1525,-0.0805,-0.273
-0.1505,-0.081,-0.271
-0.152,-0.081,-0.27
-0.1555,-0.082,-0.2715
-0.1535,-0.0825,-0.2705
-0.1535,-0.0815,-0.27
-0.155,-0.0805,-0.2715
-0.153,-0.08,-0.271
-0.1545,-0.079,-0.269
-0.1565,-0.081,-0.2695
-0.156,-0.084,-0.2685
-0.1565,-0.084,-0.268
-0.1575,-0.082,-0.271
-0.1565,-0.0835,-0.269
-0.1585,-0.084,-0.2695
-0.159,-0.0835,-0.2735
-0.1545,-0.0825,-0.2735
-0.1525,-0.082,-0.2735
-0.1535,-0.084,-0.273
-0.157,-0.084,-0.2745
-0.1585,-0.0845,-0.275
-0.156,-0.084,-0.273
-0.151,-0.083,-0.2725
-0.149,-0.081,-0.2715
-0.1465,-0.0805,-0.2705
-0.1435,-0.0825,-0.27
-0.146,-0.0825,-0.27
-0.1485,-0.081,-0.2695
-0.1505,-0.0825,-0.2695
-0.1475,-0.0835,-0.2685
-0.1475,-0.0795,-0.2665
-0.145,-0.0785,-0.267
-0.142,-0.0775,-0.266
-0.146,-0.0765,-0.2665
-0.1455,-0.0805,-0.267
-0.1425,-0.0825,-0.2655
-0.144,-0.083,-0.266
-0.142,-0.081,-0.264
-0.1365,-0.0765,-0.263
-0.1375,-0.074,-0.2645
-0.1385,-0.0755,-0.264
-0.138,-0.075,-0.2635
-0.137,-0.074,-0.263
-0.133,-0.0705,-0.2615
-0.1325,-0.07,-0.2615
-0.1325,-0.071,-0.259
-0.129,-0.0665,-0.259
-0.1255,-0.062,-0.2595
-0.1245,-0.06,-0.258
-0.1255,-0.0595,-0.2575
-0.1205,-0.0565,-0.255
-0.1165,-0.053,-0.257
-0.114,-0.048,-0.2565
-0.112,-0.0455,-0.2545
-0.108,-0.0445,-0.2565
-0.102,-0.0415,-0.257
-0.104,-0.0415,-0.259
-0.105,-0.043,-0.262
-0.105,-0.045,-0.2615
-0.105,-0.0455,-0.262
-0.1045,-0.0445,-0.265
-0.1045,-0.04,-0.266
-0.102,-0.039,-0.269
-0.099,-0.037,-0.2705
-0.0955,-0.035,-0.269
-0.0925,-0.036,-0.268
-0.0865,-0.029,-0.267
-0.0805,-0.024,-0.2725
-0.0765,-0.02,-0.2735
-0.0705,-0.0145,-0.2745
-0.068,-0.0105,-0.2755
-0.067,-0.006,-0.2745
-0.067,-0.0055,-0.278
-0.068,-0.0095,-0.2775
-0.066,-0.01,-0.2755
-0.064,-0.01,-0.2755
-0.0665,-0.015,-0.281
-0.07,-0.018,-0.2815
-0.0745,-0.0215,-0.283
-0.0795,-0.0295,-0.287
-0.082,-0.0315,-0.2855
-0.0845,-0.0355,-0.287
-0.089,-0.0395,-0.286
-0.091,-0.0415,-0.2835
-0.091,-0.046,-0.2835
-0.0915,-0.047,-0.281
-0.0915,-0.0445,-0.2785
-0.0915,-0.042,-0.279
-0.094,-0.044,-0.279
-0.095,-0.0475,-0.278
-0.0945,-0.05,-0.278
-0.0925,-0.048,-0.2775
-0.0865,-0.0455,-0.277
-0.0815,-0.042,-0.2745
-0.0815,-0.04,-0.275
-0.0795,-0.0425,-0.275
-0.076,-0.0425,-0.2725
-0.073,-0.037,-0.2705
-0.071,-0.0355,-0.2665
-0.073,-0.037,-0.2675
-0.0745,-0.0365,-0.267
-0.0715,-0.0365,-0.265
-0.068,-0.035,-0.267
-0.068,-0.0365,-0.267
-0.0745,-0.038,-0.2655
-0.082,-0.0375,-0.265
-0.085,-0.0385,-0.265
-0.085,-0.04,-0.267
-0.09,-0.042,-0.2685
-0.0965,-0.045,-0.2675
-0.101,-0.048,-0.2665
-0.1095,-0.0515,-0.267
-0.1155,-0.056,-0.267
-0.126,-0.06,-0.267
-0.1345,-0.0655,-0.268
-0.138,-0.0715,-0.2685
-0.1475,-0.0785,-0.271
-0.1565,-0.0855,-0.2745
-0.1615,-0.088,-0.2755
-0.1635,-0.088,-0.274
-0.1645,-0.0885,-0.272
-0.162,-0.0895,-0.272
-0.161,-0.0885,-0.2725
-0.159,-0.0895,-0.2725
-0.1605,-0.094,-0.274
-0.1665,-0.0955,-0.2745
-0.167,-0.0945,-0.274
-0.1695,-0.0945,-0.2755
-0.1715,-0.0945,-0.2745
-0.1705,-0.096,-0.274
-0.17,-0.097,-0.274
-0.17,-0.0975,-0.275
-0.1675,-0.099,-0.2755
-0.1695,-0.099,-0.274
-0.1735,-0.099,-0.275
-0.1735,-0.1015,-0.2765
-0.168,-0.1025,-0.2775
-0.165,-0.101,-0.276
-0.1685,-0.1005,-0.2745
-0.17,-0.101,-0.2755
-0.1695,-0.103,-0.275
-0.1695,-0.103,-0.2745
-0.1675,-0.1015,-0.2745
-0.166,-0.1015,-0.275
-0.1675,-0.0985,-0.274
-0.1725,-0.098,-0.272
-0.1795,-0.101,-0.272
-0.1775,-0.103,-0.2735
-0.1785,-0.104,-0.2735
-0.1825,-0.104,-0.27
-0.182,-0.1045,-0.272
-0.18,-0.1015,-0.2735
-0.177,-0.101,-0.271
-0.176,-0.101,-0.272
-0.174,-0.097,-0.272
-0.17,-0.0995,-0.272
-0.1685,-0.102,-0.272
-0.176,-0.101,-0.2715
-0.181,-0.1015,-0.273
-0.1815,-0.103,-0.2755
-0.18,-0.0995,-0.275
-0.1795,-0.0935,-0.2745
-0.18,-0.0965,-0.2745
-0.1755,-0.0945,-0.273
-0.169,-0.0895,-0.2705
-0.1635,-0.084,-0.263
-0.163,-0.079,-0.2545
-0.1655,-0.0715,-0.2495
-0.1615,-0.0585,-0.2435
-0.159,-0.052,-0.233
-0.1625,-0.048,-0.222
-0.1625,-0.043,-0.213
-0.162,-0.0335,-0.2025
-0.1585,-0.0215,-0.19
-0.148,-0.003,-0.1765
-0.13,0.028,-0.167
-0.101,0.074,-0.158
-0.0765,0.1135,-0.1485
-0.049,0.1525,-0.1385
-0.0125,0.21,-0.126
0.018,0.2645,-0.116
0.059,0.33,-0.104
0.106,0.399,-0.0895
0.156,0.4715,-0.0775
0.2095,0.5465,-0.069
0.242,0.596,-0.0675
0.263,0.628,-0.0645
0.2835,0.6495,-0.064
0.296,0.6615,-0.0675
0.307,0.6785,-0.069
0.3265,0.7075,-0.0725
0.3385,0.7275,-0.0815
0.348,0.745,-0.087
0.356,0.7715,-0.093
0.3525,0.794,-0.102
0.3455,0.8085,-0.114
0.332,0.8005,-0.13
0.313,0.7785,-0.145
0.3,0.7575,-0.165
0.279,0.7195,-0.174
0.246,0.663,-0.18
0.1795,0.5685,-0.1975
0.0915,0.457,-0.2255
0.031,0.364,-0.279
-0.0115,0.268,-0.3295
-0.0575,0.1685,-0.3645
-0.1,0.0655,-0.3985
-0.126,-0.024,-0.433
-0.1635,-0.1195,-0.461
-0.2095,-0.241,-0.4815
-0.2565,-0.35,-0.4925
-0.29,-0.419,-0.494
-0.2985,-0.4485,-0.4945
-0.3045,-0.453,-0.491
-0.303,-0.4335,-0.482
-0.2945,-0.411,-0.47
-0.2805,-0.385,-0.456
-0.269,-0.361,-0.444
-0.2645,-0.3445,-0.434
-0.259,-0.3275,-0.4215
-0.253,-0.311,-0.4095
-0.25,-0.295,-0.3945
-0.2425,-0.275,-0.3775
-0.234,-0.2495,-0.366
-0.2305,-0.237,-0.3575
-0.225,-0.226,-0.348
-0.22,-0.211,-0.3375
-0.2125,-0.1925,-0.3305
-0.205,-0.1735,-0.3205
-0.1965,-0.158,-0.3105
-0.1915,-0.145,-0.3045
-0.186,-0.136,-0.299
-0.178,-0.1265,-0.295
-0.1775,-0.119,-0.2905
-0.173,-0.111,-0.287
-0.169,-0.108,-0.285
-0.165,-0.105,-0.2815
-0.16,-0.1005,-0.2795
-0.16,-0.0975,-0.2805
-0.1615,-0.095,-0.279
-0.1635,-0.0955,-0.2785
-0.1615,-0.095,-0.2765
-0.1595,-0.094,-0.275
-0.158,-0.093,-0.2725
-0.1575,-0.0915,-0.2715
-0.162,-0.0915,-0.273
-0.163,-0.092,-0.27
-0.163,-0.092,-0.2695
-0.1665,-0.0925,-0.27
-0.1655,-0.091,-0.2695
-0.1615,-0.0895,-0.2675
-0.1605,-0.091,-0.2655
-0.163,-0.0895,-0.267
-0.162,-0.088,-0.2675
-0.1585,-0.09,-0.264
-0.1605,-0.0905,-0.2645
-0.1625,-0.0895,-0.2645
-0.1625,-0.09,-0.2625
-0.1605,-0.0895,-0.2635
-0.1575,-0.0865,-0.2655
-0.1575,-0.0855,-0.265
-0.159,-0.0865,-0.262
-0.16,-0.0875,-0.2635
-0.1615,-0.0875,-0.2635
-0.1615,-0.0865,-0.2625
-0.157,-0.0845,-0.2625
-0.1565,-0.083,-0.261
-0.1585,-0.0845,-0.2615
-0.1585,-0.0825,-0.2605
-0.158,-0.0805,-0.258
-0.1555,-0.08,-0.2565
-0.1545,-0.078,-0.258
-0.1565,-0.0795,-0.2595
-0.157,-0.079,-0.2595
-0.1575,-0.0785,-0.258
-0.155,-0.078,-0.259
-0.147,-0.077,-0.2605
-0.146,-0.0775,-0.26
-0.147,-0.077,-0.26
-0.1485,-0.0765,-0.2605
-0.1495,-0.0775,-0.262
-0.148,-0.077,-0.262
-0.1495,-0.072,-0.2635
-0.1495,-0.0725,-0.2655
-0.1535,-0.077,-0.262
-0.157,-0.0755,-0.261
-0.1575,-0.073,-0.261
-0.1555,-0.073,-0.2595
-0.1485,-0.0725,-0.261
-0.148,-0.07,-0.2585
-0.1485,-0.0695,-0.259
-0.1455,-0.0685,-0.2615
-0.1415,-0.067,-0.2585
-0.1375,-0.0635,-0.257
-0.135,-0.062,-0.257
-0.139,-0.065,-0.258
-0.1435,-0.0625,-0.258
-0.1445,-0.0625,-0.257
-0.143,-0.066,-0.2585
-0.141,-0.0635,-0.258
-0.1355,-0.0615,-0.257
-0.1335,-0.0605,-0.258
-0.1365,-0.06,-0.259
-0.135,-0.0595,-0.2585
-0.134,-0.058,-0.257
-0.135,-0.0575,-0.2545
-0.136,-0.0585,-0.2555
-0.139,-0.058,-0.257
-0.1405,-0.055,-0.255
-0.139,-0.058,-0.255
-0.139,-0.0625,-0.2555
-0.137,-0.058,-0.256
-0.1355,-0.057,-0.2575
-0.1345,-0.057,-0.2575
-0.135,-0.0545,-0.258
-0.133,-0.0535,-0.257
-0.129,-0.053,-0.257
-0.1275,-0.052,-0.258
-0.125,-0.05,-0.258
-0.126,-0.048,-0.2585
-0.125,-0.047,-0.2585
-0.123,-0.045,-0.258
-0.1245,-0.043,-0.2575
-0.1225,-0.0425,-0.257
-0.1205,-0.042,-0.2565
-0.1185,-0.0415,-0.2565
-0.1155,-0.0385,-0.2545
-0.114,-0.0335,-0.254
-0.1165,-0.034,-0.2555
-0.122,-0.0345,-0.2525
-0.1205,-0.034,-0.251
-0.1165,-0.0335,-0.2525
-0.1135,-0.0305,-0.2525
-0.1135,-0.029,-0.2525
-0.116,-0.027,-0.2525
-0.114,-0.0245,-0.2515
-0.11,-0.023,-0.2515
-0.108,-0.023,-0.251
-0.106,-0.0205,-0.251
-0.102,-0.017,-0.25
-0.1015,-0.0155,-0.252
-0.1015,-0.0145,-0.252
-0.0995,-0.0135,-0.2525
-0.097,-0.0105,-0.253
-0.095,-0.009,-0.252
-0.0975,-0.0095,-0.253
-0.0975,-0.006,-0.253
-0.1,-0.002,-0.2545
-0.101,-0.0045,-0.253
-0.0975,-0.005,-0.251
-0.0965,-0.0045,-0.2495
-0.0945,-0.001,-0.2515
-0.092,0.0035,-0.251
-0.088,0.003,-0.2495
-0.0895,0.0075,-0.251
-0.09,0.009,-0.2495
-0.086,0.0095,-0.2505
-0.085,0.012,-0.248
-0.0795,0.012,-0.248
-0.0775,0.016,-0.2495
-0.077,0.0185,-0.2485
-0.0745,0.021,-0.2485
-0.071,0.0255,-0.2455
-0.067,0.028,-0.2445
-0.065,0.03,-0.2475
-0.0635,0.0325,-0.2455
-0.0645,0.0335,-0.2425
-0.0635,0.038,-0.2425
-0.0605,0.0405,-0.241
-0.058,0.042,-0.2395
-0.0585,0.047,-0.238
-0.0575,0.052,-0.2385
-0.0515,0.0555,-0.239
-0.049,0.059,-0.239
-0.046,0.0635,-0.239
-0.042,0.067,-0.238
-0.0405,0.0725,-0.236
-0.035,0.076,-0.234
-0.032,0.0765,-0.235
-0.0285,0.079,-0.2345
-0.0265,0.0845,-0.235
-0.0265,0.091,-0.2345
-0.023,0.095,-0.2325
-0.0185,0.099,-0.233
-0.013,0.1035,-0.231
-0.009,0.109,-0.2295
-0.007,0.1145,-0.2285
-0.007,0.1185,-0.2285
-0.005,0.1245,-0.229
-0.0005,0.127,-0.2275
0.006,0.1325,-0.2255
0.011,0.1385,-0.2245
0.013,0.142,-0.224
0.0165,0.1505,-0.223
0.0215,0.1575,-0.2205
0.027,0.1605,-0.219
0.031,0.164,-0.219
0.036,0.169,-0.219
0.039,0.1745,-0.219
0.0395,0.1795,-0.216
0.045,0.183,-0.2135
0.05,0.1875,-0.2105
0.053,0.194,-0.2115
0.0555,0.198,-0.212
0.0585,0.202,-0.21
0.062,0.2075,-0.209
0.0625,0.213,-0.208
0.063,0.216,-0.207
0.067,0.2175,-0.204
0.0715,0.221,-0.2025
0.074,0.225,-0.2015
0.076,0.2295,-0.199
0.0785,0.233,-0.197
0.081,0.2395,-0.196
0.0825,0.244,-0.1965
0.0865,0.242,-0.1975
0.0925,0.2475,-0.195
0.0975,0.2535,-0.192
0.1015,0.254,-0.1915
0.102,0.2545,-0.191
0.104,0.258,-0.192
0.105,0.261,-0.1885
0.1035,0.263,-0.188
0.1045,0.266,-0.189
0.1095,0.2675,-0.1885
0.112,0.2695,-0.188
0.1115,0.2735,-0.187
0.11,0.273,-0.1875
0.1105,0.273,-0.186
0.1105,0.2755,-0.185
0.1105,0.275,-0.185
0.114,0.2735,-0.1825
0.111,0.275,-0.183
0.112,0.276,-0.184
0.114,0.276,-0.1825
0.1155,0.2775,-0.1845
0.1155,0.279,-0.184
0.115,0.279,-0.181
0.1135,0.28,-0.1805
0.1105,0.2795,-0.182
0.112,0.2765,-0.182
0.1105,0.2745,-0.182
0.1125,0.2745,-0.1845
0.113,0.2735,-0.1835
0.1085,0.2725,-0.1855
0.1045,0.2705,-0.1855
0.1025,0.266,-0.182
0.106,0.263,-0.1835
0.103,0.2595,-0.1825
0.098,0.256,-0.1825
0.095,0.2505,-0.184
0.092,0.2475,-0.183
0.089,0.2435,-0.1845
0.086,0.2395,-0.1865
0.0815,0.235,-0.1865
0.0795,0.223,-0.1895
0.0785,0.214,-0.1915
0.0735,0.209,-0.1895
0.0695,0.204,-0.1925
0.063,0.197,-0.194
0.0585,0.191,-0.1945
0.0525,0.1835,-0.1955
0.0445,0.1765,-0.1965
0.0405,0.1695,-0.198
0.035,0.1625,-0.2005
0.0255,0.1545,-0.202
0.0185,0.1465,-0.2025
0.0115,0.14,-0.2055
0.004,0.132,-0.2065
-0.0015,0.1275,-0.204
-0.0105,0.119,-0.2055
-0.017,0.106,-0.2095
-0.0205,0.102,-0.2095
-0.026,0.0975,-0.212
-0.0295,0.0865,-0.2145
-0.035,0.0795,-0.218
-0.0405,0.0735,-0.22
-0.043,0.067,-0.22
-0.046,0.059,-0.222
-0.05,0.0505,-0.223
-0.0535,0.0455,-0.2255
-0.059,0.0385,-0.226
-0.063,0.034,-0.2275
-0.066,0.0275,-0.2315
-0.073,0.0185,-0.2355
-0.08,0.011,-0.2365
-0.0825,0.006,-0.237
-0.0875,0.002,-0.239
-0.0915,-0.003,-0.24
-0.0945,-0.0095,-0.2395
-0.0955,-0.015,-0.2415
-0.095,-0.0165,-0.2435
-0.0995,-0.019,-0.245
-0.104,-0.023,-0.2465
-0.108,-0.033,-0.246
-0.111,-0.0385,-0.249
-0.113,-0.0405,-0.2515
-0.114,-0.043,-0.2505
-0.114,-0.0435,-0.2515
-0.115,-0.047,-0.254
-0.1155,-0.0495,-0.254
-0.117,-0.053,-0.2525
-0.12,-0.057,-0.253
-0.123,-0.0595,-0.2555
-0.1255,-0.0605,-0.2565
-0.1265,-0.062,-0.2545
-0.1285,-0.065,-0.256
-0.1315,-0.0665,-0.257
-0.135,-0.0695,-0.2585
-0.135,-0.0715,-0.2595
-0.137,-0.072,-0.2605
-0.1405,-0.0805,-0.2645
-0.139,-0.0845,-0.263
-0.1405,-0.0815,-0.2635
-0.141,-0.08,-0.2655
-0.1385,-0.083,-0.2675
-0.139,-0.085,-0.2665
-0.14,-0.085,-0.2665
-0.1395,-0.0875,-0.2675
-0.1395,-0.088,-0.2685
-0.141,-0.0885,-0.27
-0.142,-0.091,-0.2675
-0.1425,-0.0935,-0.2665
-0.1425,-0.0925,-0.2665
-0.141,-0.094,-0.2665
-0.146,-0.0955,-0.266
-0.15,-0.094,-0.2665
-0.1495,-0.0945,-0.267
-0.1495,-0.0955,-0.2675
-0.15,-0.0955,-0.2665
-0.153,-0.0955,-0.2665
-0.1525,-0.0975,-0.268
-0.1515,-0.1,-0.268
-0.1555,-0.101,-0.2695
-0.1535,-0.101,-0.27
-0.1525,-0.1,-0.272
-0.1505,-0.102,-0.272
-0.146,-0.1005,-0.2725
-0.146,-0.1005,-0.2735
-0.1465,-0.1035,-0.2735
-0.149,-0.103,-0.2755
-0.1495,-0.1035,-0.2745
-0.149,-0.1025,-0.275
-0.149,-0.102,-0.2755
-0.151,-0.103,-0.2745
-0.1535,-0.1025,-0.2725
-0.1565,-0.102,-0.274
-0.16,-0.1025,-0.275
-0.1585,-0.103,-0.2725
-0.1585,-0.1035,-0.2725
-0.1575,-0.1045,-0.2735
-0.1585,-0.106,-0.2725
-0.158,-0.108,-0.2705
-0.1535,-0.107,-0.272
-0.1545,-0.105,-0.275
-0.154,-0.105,-0.276
-0.154,-0.1035,-0.2765
-0.156,-0.106,-0.277
-0.1565,-0.106,-0.2775
-0.156,-0.1065,-0.277
-0.155,-0.108,-0.2785
-0.156,-0.1045,-0.278
-0.157,-0.105,-0.277
-0.155,-0.1055,-0.2785
-0.1545,-0.1075,-0.276
-0.1565,-0.11,-0.2745
-0.156,-0.109,-0.276
-0.1565,-0.109,-0.276
-0.157,-0.11,-0.2745
-0.156,-0.11,-0.2755
-0.151,-0.106,-0.2775
-0.1495,-0.104,-0.278
-0.1505,-0.1065,-0.2785
-0.1495,-0.1075,-0.2765
-0.15,-0.1095,-0.276
-0.1495,-0.109,-0.277
-0.151,-0.109,-0.2745
-0.1525,-0.111,-0.2725
-0.1525,-0.1115,-0.2745
-0.153,-0.1115,-0.2755
-0.1545,-0.1105,-0.278
-0.1565,-0.1105,-0.2785
-0.156,-0.1095,-0.275
-0.1565,-0.111,-0.2765
-0.156,-0.112,-0.277
-0.155,-0.1115,-0.2765
-0.156,-0.1105,-0.2775
-0.156,-0.11,-0.278
-0.156,-0.11,-0.278
-0.1565,-0.1115,-0.277
-0.1585,-0.111,-0.279
-0.1595,-0.1085,-0.2805
-0.1575,-0.108,-0.28
-0.155,-0.109,-0.2805
-0.153,-0.1115,-0.2825
-0.1525,-0.111,-0.282
-0.1505,-0.109,-0.2815
-0.151,-0.1085,-0.281
-0.1505,-0.109,-0.2805
-0.1495,-0.109,-0.2825
-0.15,-0.107,-0.2835
-0.15,-0.107,-0.285
-0.1525,-0.106,-0.2855
-0.1505,-0.1085,-0.2845
-0.151,-0.1095,-0.285
-0.1505,-0.109,-0.282
-0.1465,-0.112,-0.2805
-0.146,-0.1085,-0.282
-0.143,-0.105,-0.281
-0.1435,-0.1055,-0.2795
-0.1465,-0.105,-0.2815
-0.1465,-0.1065,-0.2825
-0.1455,-0.108,-0.281
-0.145,-0.107,-0.2815
-0.1445,-0.105,-0.2805
-0.141,-0.1035,-0.283
-0.142,-0.104,-0.2835
-0.146,-0.1045,-0.284
-0.1465,-0.103,-0.2845
-0.146,-0.1045,-0.2845
-0.1445,-0.1045,-0.2855
-0.143,-0.1015,-0.282
-0.14,-0.102,-0.2815
-0.139,-0.1025,-0.2845
-0.1385,-0.101,-0.2855
-0.1375,-0.1005,-0.2835
-0.1385,-0.1015,-0.2825
-0.1405,-0.1015,-0.2845
-0.1445,-0.1025,-0.2845
-0.1465,-0.1005,-0.2845
-0.1445,-0.1,-0.284
-0.141,-0.1035,-0.2845
-0.1385,-0.103,-0.285
-0.1375,-0.103,-0.2845
-0.1395,-0.101,-0.285
-0.1425,-0.1025,-0.287
-0.142,-0.105,-0.2885
-0.1385,-0.102,-0.288
-0.139,-0.103,-0.2885
-0.1435,-0.1025,-0.2875
-0.1445,-0.0995,-0.289
-0.1415,-0.1015,-0.289
-0.14,-0.101,-0.289
-0.138,-0.1005,-0.292
-0.1355,-0.101,-0.29
-0.1355,-0.1005,-0.2895
-0.136,-0.099,-0.2895
-0.1365,-0.0975,-0.289
-0.136,-0.097,-0.2885
-0.1375,-0.0985,-0.289
-0.139,-0.0995,-0.2885
-0.1405,-0.0975,-0.2885
-0.143,-0.1,-0.2895
-0.142,-0.1005,-0.291
-0.142,-0.0995,-0.293
-0.1415,-0.101,-0.292
-0.1385,-0.1,-0.292
-0.1405,-0.099,-0.292
-0.1405,-0.1015,-0.294
-0.1385,-0.104,-0.292
-0.141,-0.102,-0.2925
-0.14,-0.101,-0.2945
-0.1385,-0.1005,-0.2935
-0.138,-0.1015,-0.2955
-0.1355,-0.102,-0.2945
-0.1365,-0.1015,-0.294
-0.1375,-0.102,-0.2945
-0.1355,-0.1035,-0.295
-0.14,-0.1005,-0.2955
-0.143,-0.1005,-0.2945
-0.142,-0.104,-0.294
-0.1435,-0.1015,-0.295
-0.142,-0.102,-0.297
-0.1385,-0.103,-0.299
-0.1395,-0.104,-0.3
-0.141,-0.105,-0.2985
-0.1375,-0.106,-0.298
-0.136,-0.106,-0.297
-0.1345,-0.104,-0.2975
-0.1325,-0.104,-0.2995
-0.1305,-0.104,-0.2985
-0.1335,-0.1075,-0.298
-0.137,-0.109,-0.3
-0.137,-0.1085,-0.2995
-0.139,-0.1085,-0.299
-0.139,-0.107,-0.2995
-0.1385,-0.107,-0.298
-0.137,-0.1085,-0.299
-0.1375,-0.108,-0.2975
-0.1395,-0.109,-0.296
-0.137,-0.1085,-0.2985
-0.1375,-0.1085,-0.2985
-0.1395,-0.111,-0.299
-0.139,-0.1125,-0.299
-0.139,-0.1135,-0.3
-0.137,-0.114,-0.3
-0.138,-0.114,-0.3
-0.1415,-0.114,-0.298
-0.143,-0.116,-0.299
-0.142,-0.115,-0.302
-0.139,-0.113,-0.3
-0.1375,-0.1135,-0.3015
-0.141,-0.113,-0.3015
-0.144,-0.113,-0.301
-0.1415,-0.112,-0.3025
-0.1395,-0.111,-0.3
-0.1385,-0.111,-0.3025
-0.142,-0.1125,-0.306
-0.1485,-0.115,-0.3045
-0.147,-0.1165,-0.303
-0.1425,-0.115,-0.304
-0.143,-0.115,-0.305
-0.1425,-0.1165,-0.306
-0.143,-0.1175,-0.3065
-0.143,-0.119,-0.306
-0.1425,-0.119,-0.3085
-0.145,-0.1175,-0.3075
-0.1455,-0.119,-0.3055
-0.146,-0.121,-0.3075
-0.1455,-0.1205,-0.3085
-0.1435,-0.1195,-0.308
-0.146,-0.1195,-0.306
-0.146,-0.119,-0.308
-0.143,-0.1195,-0.31
-0.1445,-0.1205,-0.309
-0.146,-0.1215,-0.308
-0.1455,-0.1225,-0.3095
-0.147,-0.118,-0.309
-0.1485,-0.118,-0.3075
-0.1495,-0.1235,-0.309
-0.1525,-0.126,-0.3075
-0.153,-0.124,-0.3065
-0.1515,-0.1225,-0.308
-0.1515,-0.1235,-0.3085
-0.1505,-0.124,-0.309
-0.1515,-0.125,-0.311
-0.151,-0.1235,-0.311
-0.149,-0.1255,-0.3115
-0.1495,-0.127,-0.3125
-0.1505,-0.124,-0.313
-0.152,-0.124,-0.314
-0.1535,-0.1245,-0.314
-0.155,-0.1245,-0.3145
-0.1535,-0.125,-0.313
-0.149,-0.126,-0.313
-0.148,-0.127,-0.3135
-0.15,-0.1275,-0.313
-0.149,-0.1285,-0.3135
-0.146,-0.127,-0.313
-0.1475,-0.1275,-0.3135
-0.1495,-0.1315,-0.3145
-0.149,-0.1305,-0.315
-0.1465,-0.1305,-0.3155
-0.148,-0.129,-0.3155
-0.1485,-0.1285,-0.3155
-0.147,-0.133,-0.316
-0.1435,-0.1335,-0.3165
-0.1445,-0.1335,-0.316
-0.1495,-0.134,-0.3155
-0.1505,-0.135,-0.3155
-0.148,-0.132,-0.317
-0.1455,-0.129,-0.317
-0.151,-0.1305,-0.314
-0.152,-0.1345,-0.316
-0.152,-0.1325,-0.318
-0.153,-0.1305,-0.317
-0.1495,-0.132,-0.315
-0.152,-0.1335,-0.314
-0.1525,-0.1335,-0.3165
-0.152,-0.1345,-0.315
-0.151,-0.1335,-0.316
-0.1495,-0.1305,-0.3175
-0.154,-0.1345,-0.3155
-0.1595,-0.1355,-0.3145
-0.159,-0.135,-0.315
-0.155,-0.137,-0.318
-0.155,-0.1355,-0.3185
-0.1525,-0.1345,-0.317
-0.1495,-0.133,-0.3165
-0.1525,-0.1335,-0.317
-0.151,-0.1335,-0.3175
-0.1485,-0.1335,-0.318
-0.149,-0.1325,-0.318
-0.149,-0.1335,-0.316
-0.151,-0.135,-0.3135
-0.154,-0.133,-0.313
-0.1535,-0.1325,-0.315
-0.1535,-0.1325,-0.317
-0.155,-0.1325,-0.3175
-0.157,-0.1365,-0.317
-0.16,-0.1395,-0.3155
-0.16,-0.137,-0.317
-0.1565,-0.135,-0.3175
-0.156,-0.133,-0.317
-0.155,-0.1365,-0.318
-0.153,-0.1395,-0.3185
-0.1525,-0.137,-0.3195
-0.153,-0.137,-0.319
-0.153,-0.1395,-0.319
-0.155,-0.1395,-0.319
-0.155,-0.1395,-0.318
-0.153,-0.1405,-0.3185
-0.1525,-0.138,-0.321
-0.153,-0.139,-0.3205
-0.154,-0.1385,-0.319
-0.155,-0.138,-0.3205
-0.1575,-0.1405,-0.321
-0.1565,-0.14,-0.3205
-0.156,-0.141,-0.322
-0.1565,-0.141,-0.322
-0.158,-0.14,-0.321
-0.1555,-0.14,-0.321
-0.1535,-0.1395,-0.3225
-0.1515,-0.14,-0.322
-0.1485,-0.141,-0.321
-0.149,-0.1425,-0.321
-0.1515,-0.1415,-0.3215
-0.1555,-0.14,-0.322
-0.1565,-0.141,-0.3225
-0.1565,-0.1415,-0.3215
-0.156,-0.141,-0.3215
-0.1575,-0.1395,-0.321
-0.159,-0.139,-0.32
-0.159,-0.139,-0.321
-0.1595,-0.1415,-0.322
-0.1615,-0.142,-0.3235
-0.1625,-0.1415,-0.3225
-0.159,-0.1435,-0.323
-0.16,-0.1405,-0.3255
-0.16,-0.1405,-0.324
-0.1595,-0.142,-0.3235
-0.1595,-0.1415,-0.3255
-0.159,-0.141,-0.3265
-0.1565,-0.1415,-0.3255
-0.153,-0.1415,-0.325
-0.15,-0.14,-0.3255
-0.148,-0.142,-0.3245
-0.153,-0.1415,-0.3255
-0.1525,-0.1395,-0.3255
-0.1535,-0.143,-0.3275
-0.159,-0.1455,-0.3255
-0.159,-0.145,-0.3255
-0.161,-0.143,-0.3265
-0.161,-0.1445,-0.3255
-0.1595,-0.144,-0.3265
-0.1645,-0.1435,-0.3255
-0.169,-0.145,-0.324
-0.1705,-0.1435,-0.324
-0.1685,-0.143,-0.326
-0.165,-0.144,-0.3255
-0.163,-0.1415,-0.326
-0.1585,-0.1415,-0.327
-0.158,-0.1475,-0.3265
-0.16,-0.146,-0.3265
-0.16,-0.146,-0.326
-0.1585,-0.1465,-0.3275
-0.155,-0.147,-0.327
-0.159,-0.1495,-0.3275
-0.16,-0.1495,-0.328
-0.1585,-0.149,-0.3265
-0.1625,-0.1465,-0.3255
-0.1615,-0.1465,-0.3255
-0.159,-0.145,-0.326
-0.154,-0.143,-0.325
-0.149,-0.143,-0.3235
-0.1525,-0.143,-0.3235
-0.157,-0.1425,-0.324
-0.1555,-0.142,-0.324
-0.153,-0.1405,-0.325
-0.1525,-0.14,-0.324
-0.153,-0.142,-0.3235
-0.153,-0.143,-0.3225
-0.1515,-0.144,-0.3225
-0.149,-0.1445,-0.322
-0.1465,-0.143,-0.3215
-0.143,-0.1415,-0.323
-0.1395,-0.14,-0.3215
-0.1385,-0.1395,-0.3205
-0.139,-0.138,-0.32
-0.1365,-0.136,-0.3205
-0.1345,-0.135,-0.32
-0.1325,-0.134,-0.318
-0.132,-0.131,-0.3195
-0.1325,-0.13,-0.318
-0.131,-0.1275,-0.314
-0.126,-0.124,-0.3125
-0.1245,-0.122,-0.316
-0.1255,-0.118,-0.316
-0.124,-0.1145,-0.3145
-0.117,-0.111,-0.315
-0.111,-0.1065,-0.314
-0.1075,-0.1045,-0.315
-0.1065,-0.1015,-0.316
-0.1085,-0.0995,-0.32
-0.1105,-0.1065,-0.321
-0.1115,-0.112,-0.3205
-0.107,-0.1085,-0.323
-0.1065,-0.1085,-0.3245
-0.108,-0.1075,-0.3255
-0.1055,-0.105,-0.3275
-0.1015,-0.1015,-0.3305
-0.096,-0.0985,-0.33
-0.0885,-0.094,-0.3315
-0.0845,-0.0925,-0.333
-0.083,-0.091,-0.333
-0.0785,-0.0825,-0.332
-0.079,-0.078,-0.331
-0.075,-0.075,-0.334
-0.071,-0.0725,-0.3355
-0.071,-0.0695,-0.336
-0.0655,-0.071,-0.334
-0.0645,-0.074,-0.333
-0.0615,-0.0715,-0.333
-0.06,-0.0715,-0.336
-0.0675,-0.078,-0.341
-0.0715,-0.087,-0.344
-0.0765,-0.0915,-0.346
-0.0785,-0.095,-0.345
-0.082,-0.101,-0.345
-0.0885,-0.1035,-0.345
-0.088,-0.1045,-0.3445
-0.0885,-0.106,-0.343
-0.0895,-0.1075,-0.3385
-0.0915,-0.1095,-0.338
-0.095,-0.1115,-0.3405
-0.096,-0.111,-0.339
-0.0935,-0.1085,-0.3395
-0.09,-0.108,-0.339
-0.0895,-0.1075,-0.3375
-0.089,-0.1065,-0.3365
-0.086,-0.1075,-0.3355
-0.08,-0.1035,-0.3355
-0.0755,-0.102,-0.335
-0.076,-0.0995,-0.3315
-0.078,-0.0965,-0.331
-0.0735,-0.098,-0.33
-0.068,-0.0975,-0.328
-0.067,-0.0975,-0.3295
-0.065,-0.0975,-0.3315
-0.0625,-0.096,-0.3325
-0.0675,-0.096,-0.332
-0.0735,-0.0985,-0.33
-0.075,-0.099,-0.3295
-0.08,-0.1,-0.331
-0.0845,-0.103,-0.332
-0.088,-0.1065,-0.3305
-0.096,-0.1125,-0.329
-0.104,-0.1175,-0.3305
-0.111,-0.122,-0.3335
-0.115,-0.1255,-0.331
-0.1215,-0.1295,-0.3305
-0.132,-0.136,-0.332
-0.139,-0.141,-0.335
-0.1465,-0.1465,-0.3375
-0.154,-0.153,-0.338
-0.1585,-0.155,-0.3395
-0.1585,-0.156,-0.337
-0.1565,-0.1585,-0.3365
-0.158,-0.159,-0.337
-0.163,-0.16,-0.338
-0.166,-0.1635,-0.341
-0.1665,-0.1655,-0.341
-0.1665,-0.166,-0.3395
-0.1675,-0.167,-0.3395
-0.172,-0.168,-0.341
-0.1755,-0.171,-0.3425
-0.176,-0.1715,-0.343
-0.1755,-0.1705,-0.342
-0.176,-0.1695,-0.341
-0.178,-0.168,-0.342
-0.1825,-0.1685,-0.3425
-0.186,-0.171,-0.3435
-0.1825,-0.1765,-0.344
-0.177,-0.1765,-0.3435
-0.1775,-0.173,-0.3435
-0.1785,-0.1735,-0.346
-0.181,-0.1745,-0.344
-0.181,-0.173,-0.3435
-0.182,-0.1745,-0.346
-0.1835,-0.176,-0.344
-0.181,-0.174,-0.342
-0.1805,-0.1715,-0.3425
-0.18,-0.171,-0.3425
-0.182,-0.172,-0.342
-0.181,-0.1705,-0.3425
-0.18,-0.17,-0.34
-0.1805,-0.1695,-0.3395
-0.18,-0.169,-0.3405
-0.183,-0.1685,-0.34
-0.1835,-0.167,-0.338
-0.184,-0.1665,-0.3395
-0.183,-0.1665,-0.341
-0.1825,-0.168,-0.3385
-0.18,-0.168,-0.3415
-0.1765,-0.166,-0.3425
-0.1765,-0.165,-0.3425
-0.1745,-0.1645,-0.3435
-0.173,-0.1635,-0.343
-0.1745,-0.163,-0.343
-0.174,-0.16,-0.341
-0.1745,-0.156,-0.337
-0.175,-0.152,-0.3325
-0.1735,-0.1465,-0.328
-0.1725,-0.142,-0.321
-0.169,-0.1345,-0.3135
-0.1665,-0.125,-0.3055
-0.1695,-0.119,-0.299
-0.173,-0.1155,-0.29
-0.1735,-0.107,-0.279
-0.1715,-0.095,-0.2665
-0.165,-0.0815,-0.254
-0.154,-0.061,-0.2435
-0.1315,-0.0255,-0.235
-0.103,0.019,-0.2255
-0.078,0.053,-0.216
-0.04,0.1035,-0.207
-0.007,0.1635,-0.194
0.023,0.2205,-0.1845
0.07,0.29,-0.1735
0.119,0.353,-0.163
0.1765,0.4335,-0.152
0.224,0.503,-0.146
0.2495,0.5425,-0.1445
0.2715,0.5755,-0.139
0.292,0.595,-0.1405
0.3025,0.611,-0.142
0.319,0.6345,-0.144
0.3375,0.6615,-0.1545
0.337,0.673,-0.1605
0.343,0.692,-0.162
0.348,0.7185,-0.1705
0.3435,0.7345,-0.179
0.333,0.739,-0.192
0.309,0.72,-0.2085
0.292,0.698,-0.224
0.2765,0.6705,-0.242
0.246,0.6255,-0.2475
0.205,0.5565,-0.2605
0.1265,0.445,-0.281
0.0475,0.338,-0.317
0.0015,0.248,-0.3735
-0.042,0.152,-0.415
-0.0885,0.051,-0.4475
-0.127,-0.049,-0.4785
-0.1545,-0.136,-0.509
-0.197,-0.2445,-0.5345
-0.244,-0.365,-0.5485
-0.2905,-0.462,-0.557
-0.3155,-0.514,-0.5565
-0.321,-0.5285,-0.5555
-0.3245,-0.525,-0.551
-0.318,-0.501,-0.539
-0.3065,-0.4755,-0.5275
-0.293,-0.449,-0.5155
-0.2845,-0.428,-0.508
-0.2805,-0.4125,-0.4995
-0.278,-0.3945,-0.488
-0.276,-0.3805,-0.4735
-0.2715,-0.365,-0.456
-0.26,-0.3405,-0.4425
-0.252,-0.319,-0.4325
-0.2465,-0.3065,-0.426
-0.2415,-0.2955,-0.4155
-0.236,-0.2795,-0.4045
-0.2245,-0.2585,-0.394
-0.213,-0.24,-0.3835
-0.2015,-0.225,-0.3765
-0.2005,-0.2105,-0.3715
-0.1955,-0.1995,-0.3665
-0.1865,-0.191,-0.3615
-0.1825,-0.186,-0.357
-0.175,-0.1765,-0.3525
-0.173,-0.1685,-0.3525
-0.1715,-0.164,-0.35
-0.1695,-0.1635,-0.35
-0.167,-0.1685,-0.3495
-0.168,-0.168,-0.347
-0.1705,-0.166,-0.3485
-0.169,-0.164,-0.348
-0.17,-0.163,-0.348
-0.1705,-0.1635,-0.3465
-0.169,-0.162,-0.3455
-0.1705,-0.163,-0.3445
-0.1695,-0.1645,-0.3455
-0.168,-0.163,-0.347
-0.17,-0.163,-0.3435
-0.166,-0.163,-0.3435
-0.165,-0.1615,-0.343
-0.1675,-0.1625,-0.341
-0.1655,-0.1625,-0.3405
-0.168,-0.162,-0.3395
-0.1705,-0.162,-0.339
-0.1695,-0.162,-0.341
-0.17,-0.159,-0.3395
-0.1695,-0.158,-0.339
-0.1675,-0.1605,-0.34
-0.1685,-0.159,-0.338
-0.1665,-0.1575,-0.3395
-0.1635,-0.157,-0.3405
-0.163,-0.1555,-0.342
-0.163,-0.155,-0.341
-0.163,-0.1555,-0.339
-0.163,-0.154,-0.3395
-0.163,-0.153,-0.3395
-0.161,-0.152,-0.34
-0.1635,-0.15,-0.336
-0.1655,-0.1515,-0.3365
-0.1635,-0.151,-0.335
-0.164,-0.151,-0.3335
-0.1605,-0.1505,-0.3365
-0.1595,-0.148,-0.3345
-0.16,-0.149,-0.336
-0.157,-0.147,-0.338
-0.16,-0.144,-0.3355
-0.1615,-0.1445,-0.338
-0.1595,-0.1485,-0.339
-0.1585,-0.145,-0.335
-0.156,-0.1435,-0.3365
-0.1565,-0.1435,-0.3365
-0.1535,-0.141,-0.338
-0.154,-0.1435,-0.3385
-0.157,-0.1435,-0.337
-0.154,-0.1415,-0.338
-0.1545,-0.143,-0.336
-0.1575,-0.14,-0.3355
-0.161,-0.139,-0.335
-0.16,-0.1405,-0.3325
-0.1565,-0.139,-0.334
-0.1585,-0.138,-0.335
-0.1595,-0.1385,-0.334
-0.1595,-0.137,-0.3355
-0.16,-0.136,-0.3345
-0.1585,-0.137,-0.3355
-0.154,-0.134,-0.336
-0.15,-0.132,-0.335
-0.148,-0.1325,-0.3375
-0.1455,-0.131,-0.3375
-0.146,-0.128,-0.338
-0.147,-0.1275,-0.3405
-0.145,-0.127,-0.3415
-0.14,-0.1245,-0.339
-0.141,-0.1235,-0.3355
-0.1415,-0.122,-0.337
-0.1385,-0.1225,-0.3375
-0.139,-0.1225,-0.336
-0.1385,-0.121,-0.337
-0.1405,-0.12,-0.336
-0.143,-0.121,-0.335
-0.143,-0.119,-0.3355
-0.141,-0.1165,-0.337
-0.14,-0.1185,-0.3365
-0.141,-0.118,-0.336
-0.138,-0.115,-0.3365
-0.1355,-0.116,-0.337
-0.136,-0.1155,-0.3365
-0.1335,-0.114,-0.3375
-0.132,-0.111,-0.3395
-0.1325,-0.11,-0.34
-0.1325,-0.1125,-0.338
-0.1315,-0.111,-0.339
-0.1275,-0.11,-0.3395
-0.128,-0.1075,-0.338
-0.1285,-0.1055,-0.3385
-0.1285,-0.104,-0.34
-0.129,-0.0995,-0.34
-0.129,-0.096,-0.3385
-0.132,-0.097,-0.3385
-0.133,-0.0965,-0.3395
-0.129,-0.096,-0.3385
-0.1225,-0.0955,-0.3355
-0.1245,-0.094,-0.3375
-0.126,-0.0935,-0.337
-0.1225,-0.0915,-0.336
-0.121,-0.0905,-0.3365
-0.1195,-0.09,-0.3345
-0.118,-0.0865,-0.336
-0.1155,-0.086,-0.3355
-0.117,-0.0855,-0.3355
-0.116,-0.0815,-0.336
-0.113,-0.081,-0.335
-0.112,-0.0795,-0.332
-0.112,-0.0785,-0.3295
-0.11,-0.077,-0.328
-0.1055,-0.074,-0.327
-0.105,-0.072,-0.3265
-0.103,-0.07,-0.327
-0.103,-0.0685,-0.3275
-0.105,-0.0655,-0.3265
-0.105,-0.0635,-0.3255
-0.103,-0.0615,-0.3255
-0.097,-0.0595,-0.3275
-0.095,-0.058,-0.327
-0.0915,-0.055,-0.326
-0.0875,-0.051,-0.3245
-0.088,-0.049,-0.322
-0.085,-0.0475,-0.322
-0.081,-0.046,-0.321
-0.0795,-0.044,-0.322
-0.0765,-0.0385,-0.3245
-0.074,-0.0345,-0.323
-0.074,-0.0345,-0.3225
-0.074,-0.0315,-0.3205
-0.073,-0.027,-0.3185
-0.0685,-0.0245,-0.319
-0.0645,-0.019,-0.3185
-0.0625,-0.0165,-0.315
-0.06,-0.0165,-0.315
-0.0605,-0.013,-0.3165
-0.058,-0.01,-0.3165
-0.0545,-0.005,-0.315
-0.0525,-0.0005,-0.3135
-0.0495,0.002,-0.3135
-0.048,0.004,-0.3145
-0.047,0.0095,-0.3125
-0.043,0.013,-0.312
-0.038,0.016,-0.313
-0.033,0.0225,-0.3105
-0.027,0.026,-0.3095
-0.026,0.0275,-0.309
-0.0255,0.032,-0.3085
-0.022,0.0385,-0.307
-0.0155,0.0415,-0.3045
-0.0095,0.0455,-0.3055
-0.0035,0.053,-0.304
-0.0005,0.059,-0.3015
-0.0015,0.0635,-0.3005
0.0045,0.068,-0.2995
0.0075,0.0745,-0.2985
0.0095,0.079,-0.298
0.0135,0.079,-0.298
0.014,0.0865,-0.2945
0.0175,0.096,-0.2915
0.023,0.098,-0.2915
0.026,0.1,-0.291
0.029,0.1035,-0.2895
0.0315,0.107,-0.2885
0.0355,0.1115,-0.289
0.042,0.118,-0.2885
0.0485,0.124,-0.286
0.053,0.128,-0.287
0.054,0.131,-0.2875
0.057,0.1355,-0.286
0.0565,0.14,-0.285
0.0585,0.145,-0.284
0.0625,0.1525,-0.281
0.063,0.1565,-0.278
0.068,0.156,-0.2785
0.073,0.1615,-0.2765
0.078,0.1685,-0.277
0.082,0.1695,-0.2755
0.0795,0.171,-0.2745
0.084,0.1725,-0.2745
0.0865,0.176,-0.273
0.088,0.1805,-0.2735
0.0895,0.183,-0.274
0.089,0.1865,-0.2745
0.094,0.184,-0.2725
0.094,0.184,-0.273
0.0995,0.1895,-0.271
0.1045,0.19,-0.2695
0.1035,0.1915,-0.27
0.104,0.194,-0.268
0.106,0.195,-0.2685
0.11,0.196,-0.268
0.1075,0.1975,-0.2685
0.102,0.1985,-0.2655
0.101,0.1995,-0.265
0.108,0.2035,-0.264
0.109,0.2045,-0.263
0.1065,0.201,-0.264
0.1075,0.2025,-0.2645
0.1095,0.2025,-0.265
0.1105,0.2045,-0.263
0.1075,0.206,-0.263
0.1095,0.206,-0.262
0.1135,0.2055,-0.262
0.114,0.2045,-0.26
0.116,0.205,-0.259
0.1175,0.2035,-0.2615
0.1155,0.203,-0.261
0.113,0.2,-0.2635
0.1085,0.198,-0.263
0.1065,0.1945,-0.263
0.1055,0.19,-0.2625
0.1015,0.1895,-0.2635
0.0935,0.1845,-0.264
0.0855,0.1805,-0.2655
0.0815,0.1755,-0.268
0.0785,0.1715,-0.2675
0.0805,0.169,-0.267
0.079,0.164,-0.2685
0.076,0.16,-0.2705
0.072,0.154,-0.27
0.067,0.1475,-0.269
0.065,0.1425,-0.272
0.059,0.135,-0.2745
0.055,0.1325,-0.2715
0.0485,0.126,-0.274
0.043,0.119,-0.277
0.04,0.115,-0.279
0.035,0.105,-0.2825
0.0275,0.1,-0.2825
0.0195,0.091,-0.2845
0.018,0.0795,-0.287
0.014,0.076,-0.286
0.006,0.0695,-0.285
-0.003,0.0625,-0.288
-0.01,0.056,-0.2885
-0.013,0.0485,-0.2905
-0.0185,0.0415,-0.293
-0.025,0.0345,-0.294
-0.033,0.026,-0.2965
-0.039,0.017,-0.299
-0.0415,0.009,-0.301
-0.045,0.002,-0.3025
-0.049,-0.003,-0.3055
-0.0555,-0.0105,-0.3065
-0.06,-0.0165,-0.309
-0.0615,-0.0225,-0.3105
-0.067,-0.0305,-0.3135
-0.072,-0.037,-0.3175
-0.075,-0.042,-0.316
-0.078,-0.0465,-0.3165
-0.0815,-0.053,-0.3185
-0.0865,-0.058,-0.319
-0.0905,-0.058,-0.319
-0.093,-0.062,-0.3205
-0.097,-0.07,-0.323
-0.1045,-0.0755,-0.323
-0.1085,-0.081,-0.3235
-0.113,-0.086,-0.3245
-0.1175,-0.0915,-0.3265
-0.119,-0.0955,-0.3275
-0.1185,-0.096,-0.3275
-0.12,-0.0985,-0.331
-0.125,-0.1035,-0.3335
-0.123,-0.108,-0.3335
-0.1245,-0.1125,-0.335
-0.129,-0.1155,-0.336
-0.1285,-0.1165,-0.3365
-0.131,-0.121,-0.339
-0.1335,-0.1235,-0.338
-0.1345,-0.1235,-0.3365
-0.1355,-0.1255,-0.339
-0.137,-0.1265,-0.338
-0.14,-0.1305,-0.3395
-0.143,-0.1335,-0.3415
-0.1455,-0.1345,-0.343
-0.145,-0.1365,-0.345
-0.1465,-0.136,-0.3455
-0.15,-0.136,-0.3465
-0.149,-0.1375,-0.347
-0.1435,-0.138,-0.3495
-0.144,-0.1405,-0.3495
-0.144,-0.145,-0.3485
-0.144,-0.1445,-0.3495
-0.149,-0.1445,-0.35
-0.146,-0.149,-0.3495
-0.1465,-0.1495,-0.352
-0.1495,-0.148,-0.354
-0.1495,-0.1505,-0.3525
-0.1495,-0.1455,-0.3515
-0.15,-0.145,-0.3515
-0.152,-0.155,-0.3515
-0.1555,-0.1545,-0.35
-0.1585,-0.152,-0.352
-0.1605,-0.1545,-0.3535
-0.161,-0.155,-0.352
-0.1575,-0.154,-0.3525
-0.1575,-0.1525,-0.352
-0.1605,-0.154,-0.354
-0.1625,-0.1555,-0.3535
-0.1565,-0.155,-0.353
-0.1525,-0.152,-0.355
-0.156,-0.1505,-0.3545
-0.156,-0.152,-0.3545
-0.1535,-0.1545,-0.355
-0.1535,-0.1545,-0.3565
-0.155,-0.1545,-0.3565
-0.155,-0.1545,-0.3575
-0.1525,-0.153,-0.3585
-0.155,-0.1555,-0.3555
-0.1565,-0.156,-0.356
-0.155,-0.1575,-0.358
-0.158,-0.1565,-0.358
-0.158,-0.1545,-0.356
-0.1605,-0.1555,-0.3555
-0.1635,-0.156,-0.3565
-0.161,-0.1575,-0.357
-0.1595,-0.1595,-0.3575
-0.164,-0.1615,-0.3595
-0.1685,-0.163,-0.3575
-0.1675,-0.1615,-0.3555
-0.1695,-0.162,-0.357
-0.1665,-0.1605,-0.3575
-0.164,-0.1595,-0.3595
-0.167,-0.1625,-0.359
-0.168,-0.162,-0.3575
-0.1695,-0.162,-0.359
-0.1655,-0.16,-0.3585
-0.1645,-0.1585,-0.3565
-0.164,-0.1595,-0.3565
-0.1625,-0.1585,-0.357
-0.161,-0.156,-0.359
-0.1575,-0.1545,-0.359
-0.1605,-0.158,-0.3575
-0.16,-0.158,-0.358
-0.16,-0.1565,-0.3575
-0.161,-0.157,-0.3575
-0.1625,-0.157,-0.357
-0.1625,-0.156,-0.3555
-0.159,-0.1555,-0.3575
-0.164,-0.156,-0.359
-0.1645,-0.1555,-0.3585
-0.162,-0.157,-0.3565
-0.1595,-0.1575,-0.3585
-0.155,-0.1575,-0.3605
-0.154,-0.156,-0.362
-0.1555,-0.1555,-0.3625
-0.1585,-0.1565,-0.361
-0.1595,-0.156,-0.361
-0.1575,-0.154,-0.361
-0.156,-0.1525,-0.362
-0.158,-0.1565,-0.3595
-0.159,-0.158,-0.3575
-0.1595,-0.157,-0.357
-0.1615,-0.155,-0.358
-0.1635,-0.155,-0.358
-0.1615,-0.1555,-0.358
-0.1595,-0.1515,-0.359
-0.1575,-0.1495,-0.3595
-0.1555,-0.1515,-0.3605
-0.158,-0.152,-0.359
-0.158,-0.1515,-0.359
-0.155,-0.1535,-0.3605
-0.158,-0.1515,-0.36
-0.161,-0.1515,-0.3585
-0.1595,-0.151,-0.3585
-0.1565,-0.1475,-0.36
-0.1555,-0.1475,-0.3595
-0.1585,-0.148,-0.36
-0.1585,-0.147,-0.3605
-0.156,-0.145,-0.359
-0.1585,-0.147,-0.36
-0.16,-0.1475,-0.3585
-0.161,-0.1465,-0.358
-0.158,-0.1445,-0.36
-0.1535,-0.1425,-0.3585
-0.1555,-0.1425,-0.357
-0.1625,-0.1465,-0.361
-0.167,-0.148,-0.363
-0.165,-0.1455,-0.3625
-0.1605,-0.147,-0.3615
-0.156,-0.1465,-0.361
-0.157,-0.1455,-0.3615
-0.1575,-0.146,-0.363
-0.1565,-0.146,-0.362
-0.159,-0.145,-0.3615
-0.16,-0.1455,-0.3615
-0.159,-0.1445,-0.361
-0.157,-0.1435,-0.363
-0.1535,-0.1435,-0.364
-0.153,-0.1445,-0.3625
-0.153,-0.143,-0.363
-0.1495,-0.142,-0.3645
-0.1525,-0.145,-0.362
-0.156,-0.145,-0.3615
-0.1585,-0.146,-0.36
-0.161,-0.146,-0.36
-0.1595,-0.1445,-0.3615
-0.1575,-0.145,-0.3615
-0.1615,-0.1445,-0.3625
-0.165,-0.1435,-0.3615
-0.1585,-0.1425,-0.3615
-0.155,-0.1445,-0.362
-0.1515,-0.1455,-0.3625
-0.1505,-0.1455,-0.364
-0.155,-0.1455,-0.3645
-0.154,-0.1435,-0.3645
-0.1535,-0.1415,-0.3635
-0.1515,-0.1405,-0.3625
-0.151,-0.1425,-0.3625
-0.1505,-0.1435,-0.364
-0.1515,-0.143,-0.365
-0.155,-0.141,-0.367
-0.1565,-0.1415,-0.37
-0.1565,-0.1415,-0.368
-0.157,-0.142,-0.3675
-0.1595,-0.1445,-0.3665
-0.1595,-0.142,-0.367
-0.159,-0.138,-0.3675
-0.1565,-0.141,-0.3665
-0.1565,-0.143,-0.3675
-0.1565,-0.1405,-0.366
-0.1565,-0.142,-0.369
-0.1555,-0.142,-0.3715
-0.153,-0.1415,-0.371
-0.1525,-0.143,-0.37
-0.15,-0.142,-0.369
-0.149,-0.141,-0.3675
-0.1495,-0.1415,-0.367
-0.1545,-0.142,-0.369
-0.1575,-0.1425,-0.369
-0.156,-0.143,-0.3675
-0.157,-0.141,-0.3655
-0.156,-0.143,-0.367
-0.153,-0.1425,-0.3685
-0.154,-0.1395,-0.3675
-0.1565,-0.1415,-0.3675
-0.156,-0.144,-0.3675
-0.1565,-0.1445,-0.368
-0.156,-0.1435,-0.367
-0.1555,-0.1415,-0.369
-0.1575,-0.1425,-0.3705
-0.1595,-0.145,-0.3715
-0.166,-0.1465,-0.3735
-0.1665,-0.149,-0.375
-0.158,-0.15,-0.375
-0.158,-0.147,-0.372
-0.1575,-0.145,-0.3715
-0.1575,-0.148,-0.3725
-0.1605,-0.152,-0.371
-0.162,-0.1515,-0.3705
-0.1625,-0.151,-0.3715
-0.159,-0.148,-0.3705
-0.1565,-0.146,-0.3695
-0.153,-0.144,-0.371
-0.154,-0.1435,-0.371
-0.1575,-0.1505,-0.3715
-0.1585,-0.153,-0.372
-0.1605,-0.1505,-0.37
-0.162,-0.149,-0.37
-0.163,-0.147,-0.3695
-0.1655,-0.1485,-0.3695
-0.167,-0.1525,-0.373
-0.1655,-0.154,-0.3745
-0.1605,-0.1535,-0.372
-0.154,-0.1515,-0.3735
-0.1515,-0.152,-0.3755
-0.1545,-0.1495,-0.3745
-0.1625,-0.1495,-0.376
-0.1655,-0.1525,-0.3775
-0.1645,-0.1545,-0.378
-0.1635,-0.1555,-0.3775
-0.1625,-0.1535,-0.374
-0.166,-0.155,-0.3735
-0.17,-0.1575,-0.376
-0.167,-0.156,-0.376
-0.164,-0.156,-0.3745
-0.162,-0.154,-0.3745
-0.1605,-0.155,-0.3755
-0.1625,-0.1575,-0.3755
-0.1655,-0.1565,-0.378
-0.167,-0.1565,-0.3785
-0.164,-0.157,-0.3775
-0.1625,-0.1595,-0.38
-0.1605,-0.159,-0.3775
-0.1565,-0.1565,-0.38
-0.1595,-0.1565,-0.3825
-0.1595,-0.1575,-0.3845
-0.159,-0.161,-0.3855
-0.1595,-0.163,-0.384
-0.1615,-0.1615,-0.389
-0.1645,-0.16,-0.386
-0.164,-0.1625,-0.3835
-0.1625,-0.1615,-0.3815
-0.1605,-0.159,-0.383
-0.1595,-0.1605,-0.3845
-0.1595,-0.16,-0.3835
-0.1615,-0.1595,-0.384
-0.163,-0.161,-0.3835
-0.163,-0.1635,-0.384
-0.163,-0.163,-0.3835
-0.1615,-0.1595,-0.3845
-0.158,-0.162,-0.385
-0.156,-0.162,-0.387
-0.159,-0.1615,-0.3845
-0.162,-0.165,-0.383
-0.161,-0.1645,-0.383
-0.1595,-0.1605,-0.3835
-0.1595,-0.1615,-0.3865
-0.157,-0.1645,-0.3835
-0.1565,-0.1625,-0.383
-0.1565,-0.1615,-0.382
-0.157,-0.161,-0.3805
-0.1585,-0.161,-0.383
-0.156,-0.1625,-0.385
-0.158,-0.164,-0.3835
-0.1625,-0.165,-0.3835
-0.165,-0.165,-0.383
-0.163,-0.166,-0.3835
-0.1595,-0.1635,-0.3835
-0.1625,-0.1585,-0.3805
-0.166,-0.163,-0.3815
-0.166,-0.163,-0.385
-0.1615,-0.1605,-0.3855
-0.1595,-0.165,-0.384
-0.1635,-0.1655,-0.3845
-0.166,-0.1655,-0.3845
-0.1665,-0.1615,-0.386
-0.1645,-0.1595,-0.385
-0.1635,-0.161,-0.3865
-0.161,-0.161,-0.3875
-0.1565,-0.1625,-0.387
-0.1555,-0.16,-0.3865
-0.157,-0.16,-0.3835
-0.159,-0.164,-0.387
-0.1605,-0.1635,-0.3885
-0.16,-0.1625,-0.3845
-0.1615,-0.1605,-0.384
-0.1635,-0.1625,-0.386
-0.1625,-0.165,-0.386
-0.1665,-0.163,-0.3825
-0.1675,-0.161,-0.381
-0.1655,-0.1615,-0.383
-0.161,-0.1635,-0.384
-0.1565,-0.1635,-0.3835
-0.162,-0.1635,-0.3825
-0.1655,-0.1635,-0.383
-0.1635,-0.161,-0.3855
-0.1645,-0.1615,-0.3885
-0.1635,-0.1625,-0.3885
-0.1655,-0.1615,-0.387
-0.167,-0.1615,-0.387
-0.1665,-0.16,-0.386
-0.167,-0.1615,-0.3905
-0.166,-0.164,-0.3935
-0.166,-0.161,-0.3905
-0.1675,-0.16,-0.39
-0.1675,-0.1645,-0.392
-0.168,-0.1655,-0.3905
-0.169,-0.1635,-0.3915
-0.165,-0.1625,-0.3925
-0.1635,-0.163,-0.3925
-0.163,-0.165,-0.396
-0.161,-0.1625,-0.398
-0.163,-0.162,-0.395
-0.1655,-0.1615,-0.3925
-0.162,-0.159,-0.398
-0.1615,-0.159,-0.3985
-0.163,-0.1605,-0.3945
-0.1625,-0.161,-0.3925
-0.1595,-0.16,-0.395
-0.1565,-0.1585,-0.3965
-0.1635,-0.1595,-0.3935
-0.165,-0.1605,-0.3955
-0.16,-0.162,-0.395
-0.166,-0.1665,-0.395
-0.167,-0.167,-0.394
-0.169,-0.164,-0.393
-0.17,-0.1635,-0.393
-0.165,-0.165,-0.391
-0.165,-0.1655,-0.391
-0.1645,-0.163,-0.3925
-0.1665,-0.1625,-0.394
-0.167,-0.164,-0.3955
-0.163,-0.163,-0.3925
-0.167,-0.163,-0.3905
-0.1695,-0.166,-0.392
-0.1625,-0.165,-0.3935
-0.159,-0.1615,-0.3925
-0.1605,-0.1635,-0.392
-0.16,-0.1655,-0.391
-0.165,-0.1645,-0.3905
-0.164,-0.162,-0.3915
-0.1595,-0.161,-0.391
-0.1615,-0.161,-0.3925
-0.162,-0.1625,-0.394
-0.1675,-0.165,-0.3925
-0.1705,-0.165,-0.391
-0.1695,-0.1655,-0.3945
-0.169,-0.1635,-0.3935
-0.1665,-0.1625,-0.392
-0.166,-0.161,-0.3945
-0.162,-0.1595,-0.396
-0.1625,-0.1605,-0.397
-0.1645,-0.158,-0.3955
-0.161,-0.158,-0.3935
-0.1615,-0.1605,-0.3945
-0.1615,-0.1585,-0.3975
-0.159,-0.156,-0.3955
-0.1595,-0.158,-0.3945
-0.1605,-0.16,-0.396
-0.163,-0.162,-0.3975
-0.1625,-0.16,-0.3965
-0.1605,-0.1575,-0.395
-0.1585,-0.157,-0.3975
-0.156,-0.1565,-0.3965
-0.158,-0.1575,-0.393
-0.1595,-0.1595,-0.3905
-0.1605,-0.159,-0.3925
-0.159,-0.157,-0.395
-0.1555,-0.1575,-0.3925
-0.1565,-0.158,-0.392
-0.155,-0.159,-0.3935
-0.1525,-0.155,-0.3955
-0.154,-0.1525,-0.394
-0.1565,-0.155,-0.3925
-0.1535,-0.1585,-0.3955
-0.1525,-0.16,-0.397
-0.1535,-0.158,-0.3955
-0.15,-0.1555,-0.3955
-0.1475,-0.158,-0.395
-0.1465,-0.159,-0.3915
-0.147,-0.154,-0.3875
-0.145,-0.1535,-0.3845
-0.1415,-0.1525,-0.3835
-0.146,-0.1485,-0.3815
-0.145,-0.1485,-0.3805
-0.145,-0.1485,-0.3825
-0.145,-0.1485,-0.383
-0.1425,-0.147,-0.3815
-0.139,-0.1425,-0.3805
-0.131,-0.138,-0.3785
-0.1285,-0.137,-0.377
-0.124,-0.1365,-0.3765
-0.122,-0.1305,-0.3755
-0.1205,-0.1265,-0.3745
-0.114,-0.126,-0.3755
-0.1115,-0.1255,-0.3765
-0.111,-0.125,-0.3765
-0.112,-0.1205,-0.3785
-0.1115,-0.1165,-0.378
-0.1135,-0.118,-0.3785
-0.1155,-0.119,-0.38
-0.1155,-0.1165,-0.3805
-0.1225,-0.1175,-0.382
-0.123,-0.1175,-0.385
-0.122,-0.116,-0.385
-0.1225,-0.115,-0.3855
-0.116,-0.11,-0.3905
-0.1155,-0.108,-0.391
-0.1145,-0.1045,-0.393
-0.109,-0.1025,-0.3965
-0.098,-0.099,-0.3985
-0.0855,-0.0905,-0.3995
-0.0845,-0.085,-0.3995
-0.083,-0.084,-0.3985
-0.0785,-0.0805,-0.3985
-0.078,-0.0785,-0.3985
-0.0745,-0.0785,-0.396
-0.07,-0.0775,-0.395
-0.074,-0.083,-0.3955
-0.078,-0.085,-0.398
-0.081,-0.083,-0.3975
-0.08,-0.088,-0.3985
-0.08,-0.095,-0.401
-0.0885,-0.101,-0.4005
-0.094,-0.1085,-0.4005
-0.0915,-0.11,-0.3975
-0.0935,-0.1095,-0.3955
-0.0935,-0.112,-0.3955
-0.0915,-0.113,-0.3965
-0.0975,-0.1145,-0.397
-0.097,-0.1155,-0.3965
-0.096,-0.1155,-0.397
-0.095,-0.1175,-0.3985
-0.0905,-0.1195,-0.3975
-0.0855,-0.116,-0.398
-0.081,-0.1145,-0.3995
-0.0835,-0.1145,-0.398
-0.0855,-0.1115,-0.3965
-0.0865,-0.112,-0.395
-0.0835,-0.112,-0.3915
-0.075,-0.106,-0.389
-0.0725,-0.1025,-0.3855
-0.071,-0.101,-0.3855
-0.0705,-0.102,-0.3865
-0.0695,-0.1045,-0.386
-0.067,-0.102,-0.389
-0.074,-0.101,-0.386
-0.0835,-0.105,-0.3855
-0.0855,-0.1075,-0.3885
-0.09,-0.1075,-0.388
-0.094,-0.111,-0.388
-0.0945,-0.116,-0.3865
-0.101,-0.1185,-0.386
-0.109,-0.121,-0.387
-0.1155,-0.1245,-0.387
-0.121,-0.127,-0.384
-0.1305,-0.134,-0.388
-0.1405,-0.1385,-0.3935
-0.1435,-0.1415,-0.3915
-0.15,-0.149,-0.3915
-0.157,-0.1505,-0.391
-0.159,-0.1505,-0.3915
-0.158,-0.153,-0.395
-0.159,-0.1545,-0.395
-0.161,-0.154,-0.3945
-0.1625,-0.153,-0.398
-0.168,-0.1555,-0.4
-0.1725,-0.1615,-0.402
-0.1705,-0.161,-0.4025
-0.17,-0.1615,-0.401
-0.1675,-0.1635,-0.4005
-0.1705,-0.1635,-0.401
-0.1765,-0.1675,-0.4005
-0.1775,-0.166,-0.4015
-0.1805,-0.167,-0.4055
-0.176,-0.167,-0.4055
-0.1775,-0.166,-0.402
-0.1825,-0.1695,-0.401
-0.1775,-0.168,-0.4
-0.179,-0.1675,-0.4005
-0.181,-0.1665,-0.403
-0.181,-0.166,-0.405
-0.184,-0.1665,-0.4055
-0.1835,-0.169,-0.401
-0.1835,-0.1685,-0.3985
-0.1795,-0.1665,-0.399
-0.1785,-0.166,-0.401
-0.1765,-0.164,-0.4
-0.1735,-0.1615,-0.399
-0.1735,-0.161,-0.3995
-0.1715,-0.1615,-0.398
-0.1725,-0.1615,-0.3995
-0.1735,-0.1635,-0.401
-0.176,-0.1635,-0.4
-0.171,-0.1615,-0.4005
-0.1655,-0.1585,-0.4025
-0.1675,-0.1595,-0.4025
-0.1645,-0.157,-0.4025
-0.166,-0.154,-0.4025
-0.1715,-0.158,-0.4005
-0.175,-0.158,-0.401
-0.177,-0.157,-0.4025
-0.18,-0.1515,-0.4
-0.178,-0.146,-0.4015
-0.171,-0.149,-0.401
-0.172,-0.148,-0.3975
-0.1715,-0.1425,-0.3945
-0.164,-0.133,-0.3905
-0.1665,-0.1235,-0.3825
-0.1705,-0.1175,-0.3745
-0.1655,-0.111,-0.37
-0.167,-0.1035,-0.3635
-0.167,-0.0985,-0.3535
-0.1665,-0.09,-0.343
-0.1645,-0.079,-0.3325
-0.1605,-0.068,-0.318
-0.158,-0.0515,-0.3035
-0.135,-0.0175,-0.293
-0.107,0.025,-0.283
-0.088,0.057,-0.2735
-0.056,0.1055,-0.2635
-0.0185,0.1645,-0.2515
0.0055,0.2185,-0.239
0.046,0.2855,-0.228
0.0975,0.3575,-0.217
0.154,0.4345,-0.207
0.204,0.5,-0.2015
0.232,0.5465,-0.199
0.2575,0.5875,-0.1975
0.2805,0.621,-0.1965
0.309,0.651,-0.1975
0.3305,0.6735,-0.199
0.335,0.693,-0.2055
0.3355,0.7075,-0.2135
0.342,0.721,-0.22
0.342,0.735,-0.226
0.335,0.7505,-0.2335
0.3255,0.764,-0.2445
0.296,0.738,-0.2585
0.2745,0.7105,-0.279
0.2575,0.6855,-0.2955
0.224,0.6365,-0.3035
0.1735,0.565,-0.3155
0.096,0.455,-0.328
0.025,0.351,-0.357
-0.0265,0.257,-0.4125
-0.0655,0.158,-0.4615
-0.107,0.0605,-0.4915
-0.1475,-0.038,-0.5205
-0.1775,-0.1345,-0.554
-0.211,-0.242,-0.5855
-0.251,-0.356,-0.598
-0.2895,-0.4475,-0.6025
-0.321,-0.5075,-0.608
-0.3375,-0.5295,-0.6055
-0.336,-0.515,-0.599
-0.3285,-0.4905,-0.5865
-0.313,-0.4625,-0.574
-0.298,-0.437,-0.5615
-0.29,-0.42,-0.5495
-0.289,-0.3995,-0.5365
-0.289,-0.3845,-0.5265
-0.2835,-0.375,-0.514
-0.2715,-0.355,-0.5
-0.267,-0.3385,-0.49
-0.2685,-0.324,-0.483
-0.258,-0.3035,-0.4765
-0.2475,-0.2905,-0.4665
-0.2425,-0.276,-0.4575
-0.236,-0.258,-0.4505
-0.225,-0.2425,-0.445
-0.211,-0.2215,-0.435
-0.1995,-0.202,-0.429
-0.19,-0.1905,-0.4245
-0.184,-0.1795,-0.421
-0.1805,-0.173,-0.4195
-0.175,-0.165,-0.4155
-0.17,-0.155,-0.413
-0.168,-0.149,-0.409
-0.166,-0.143,-0.4085
-0.1625,-0.1395,-0.406
-0.163,-0.139,-0.4055
-0.1665,-0.14,-0.407
-0.1705,-0.1385,-0.4055
-0.1685,-0.135,-0.406
-0.165,-0.1345,-0.403
-0.166,-0.1355,-0.4025
-0.163,-0.1355,-0.402
-0.163,-0.1315,-0.402
-0.162,-0.1295,-0.404
-0.162,-0.133,-0.405
-0.163,-0.132,-0.4045
-0.163,-0.13,-0.4025
-0.164,-0.1315,-0.4025
-0.1595,-0.129,-0.4
-0.1585,-0.1275,-0.399
-0.155,-0.127,-0.3985
-0.157,-0.125,-0.3975
-0.161,-0.124,-0.399
-0.16,-0.125,-0.3975
-0.1595,-0.125,-0.395
-0.1585,-0.1205,-0.392
-0.16,-0.1185,-0.392
-0.158,-0.118,-0.3935
-0.1565,-0.119,-0.392
-0.1575,-0.1195,-0.393
-0.1605,-0.1165,-0.3945
-0.161,-0.1175,-0.391
-0.1635,-0.1175,-0.39
-0.165,-0.1175,-0.391
-0.1635,-0.119,-0.39
-0.167,-0.117,-0.3925
-0.155,-0.1145,-0.391
-0.149,-0.112,-0.3895
-0.1525,-0.11,-0.3895
-0.147,-0.11,-0.388
-0.1475,-0.11,-0.388
-0.153,-0.1115,-0.3885
-0.155,-0.1125,-0.3895
-0.1515,-0.1085,-0.388
-0.1545,-0.1105,-0.389
-0.1575,-0.1115,-0.39
-0.152,-0.103,-0.3885
-0.147,-0.1005,-0.388
-0.1425,-0.1015,-0.386
-0.1435,-0.1025,-0.386
-0.143,-0.0995,-0.387
-0.145,-0.0975,-0.389
-0.151,-0.101,-0.39
-0.1485,-0.1,-0.389
-0.1445,-0.096,-0.39
-0.148,-0.0945,-0.39
-0.151,-0.095,-0.39
-0.153,-0.094,-0.3925
-0.1525,-0.0935,-0.3935
-0.143,-0.0885,-0.3915
-0.136,-0.0845,-0.3895
-0.1365,-0.0865,-0.3915
-0.1395,-0.087,-0.3905
-0.14,-0.088,-0.39
-0.1435,-0.087,-0.3885
-0.147,-0.0865,-0.3865
-0.1445,-0.0845,-0.389
-0.145,-0.086,-0.3885
-0.14,-0.089,-0.3885
-0.138,-0.0875,-0.3875
-0.136,-0.0865,-0.386
-0.133,-0.086,-0.3885
-0.135,-0.084,-0.3895
-0.1315,-0.0805,-0.3885
-0.132,-0.079,-0.3895
-0.1325,-0.0795,-0.3875
-0.132,-0.0795,-0.3875
-0.129,-0.078,-0.387
-0.125,-0.0755,-0.3865
-0.128,-0.074,-0.3885
-0.129,-0.0745,-0.389
-0.1295,-0.075,-0.3895
-0.129,-0.0745,-0.3865
-0.129,-0.073,-0.387
-0.126,-0.0695,-0.386
-0.121,-0.0665,-0.3895
-0.127,-0.066,-0.3905
-0.1275,-0.064,-0.388
-0.127,-0.0625,-0.3885
-0.1265,-0.064,-0.3885
-0.1255,-0.064,-0.3885
-0.129,-0.062,-0.388
-0.127,-0.0585,-0.3875
-0.123,-0.057,-0.3865
-0.1195,-0.0575,-0.387
-0.1195,-0.055,-0.387
-0.1145,-0.05,-0.3855
-0.1145,-0.0475,-0.3855
-0.113,-0.045,-0.3835
-0.1025,-0.0465,-0.3815
-0.1015,-0.0465,-0.3845
-0.1005,-0.042,-0.3865
-0.1015,-0.0415,-0.3865
-0.1015,-0.039,-0.387
-0.103,-0.0365,-0.385
-0.105,-0.035,-0.3845
-0.1045,-0.033,-0.3845
-0.097,-0.028,-0.3845
-0.093,-0.025,-0.3845
-0.101,-0.026,-0.384
-0.1045,-0.0245,-0.383
-0.1045,-0.025,-0.3825
-0.098,-0.023,-0.3835
-0.095,-0.0205,-0.3825
-0.0975,-0.019,-0.3815
-0.0935,-0.0165,-0.3805
-0.084,-0.011,-0.38
-0.0785,-0.0055,-0.382
-0.0825,-0.006,-0.384
-0.0885,-0.006,-0.385
-0.0905,-0.0025,-0.381
-0.085,0.0035,-0.3785
-0.0815,0.003,-0.376
-0.0815,0.003,-0.3755
-0.077,0.0085,-0.373
-0.0735,0.0125,-0.372
-0.0765,0.015,-0.375
-0.078,0.0145,-0.3745
-0.074,0.016,-0.374
-0.0675,0.024,-0.3745
-0.067,0.027,-0.3735
-0.0705,0.0275,-0.37
-0.07,0.0305,-0.3715
-0.066,0.032,-0.37
-0.057,0.039,-0.369
-0.054,0.045,-0.3675
-0.0525,0.0455,-0.366
-0.049,0.048,-0.3675
-0.043,0.0515,-0.3675
-0.0435,0.0565,-0.368
-0.046,0.0605,-0.3665
-0.0405,0.0625,-0.3645
-0.0335,0.0665,-0.3635
-0.027,0.0725,-0.3615
-0.0235,0.0785,-0.3585
-0.0235,0.0835,-0.3575
-0.026,0.086,-0.358
-0.024,0.0885,-0.359
-0.0215,0.092,-0.358
-0.0155,0.099,-0.3555
-0.008,0.107,-0.3535
-0.0095,0.1065,-0.3545
-0.012,0.1085,-0.355
-0.0065,0.1115,-0.3505
0.0045,0.117,-0.3495
0.011,0.1265,-0.3485
0.009,0.132,-0.3465
0.016,0.135,-0.346
0.0195,0.1375,-0.3465
0.02,0.1465,-0.3455
0.0285,0.151,-0.3435
0.0325,0.155,-0.3405
0.035,0.1605,-0.3375
0.0315,0.1605,-0.3395
0.032,0.165,-0.3395
0.0355,0.172,-0.339
0.034,0.1745,-0.338
0.0365,0.1805,-0.3335
0.0455,0.1885,-0.331
0.054,0.191,-0.3315
0.0545,0.195,-0.3355
0.0545,0.2015,-0.335
0.057,0.2085,-0.3325
0.063,0.2135,-0.3325
0.074,0.22,-0.333
0.08,0.226,-0.3305
0.076,0.2285,-0.328
0.0775,0.2325,-0.329
0.0825,0.237,-0.33
0.0825,0.2405,-0.3315
0.086,0.2415,-0.3295
0.0915,0.2445,-0.327
0.0975,0.25,-0.3275
0.1035,0.255,-0.3275
0.107,0.259,-0.326
0.1055,0.2615,-0.3245
0.103,0.2615,-0.323
0.102,0.264,-0.322
0.1045,0.268,-0.322
0.1085,0.267,-0.3225
0.1115,0.27,-0.321
0.1145,0.2735,-0.319
0.111,0.272,-0.3195
0.114,0.273,-0.321
0.1165,0.275,-0.321
0.111,0.2735,-0.3215
0.1155,0.274,-0.3205
0.1175,0.276,-0.318
0.122,0.2765,-0.315
0.128,0.279,-0.312
0.1215,0.281,-0.3135
0.1215,0.2815,-0.3115
0.123,0.2775,-0.3105
0.123,0.276,-0.3115
0.119,0.277,-0.31
0.1085,0.2745,-0.3105
0.11,0.2735,-0.309
0.115,0.273,-0.3085
0.111,0.2725,-0.308
0.1105,0.2685,-0.307
0.113,0.2645,-0.305
0.112,0.266,-0.303
0.1065,0.265,-0.303
0.1015,0.261,-0.3025
0.1025,0.2545,-0.304
0.103,0.251,-0.3045
0.098,0.2475,-0.3055
0.094,0.243,-0.307
0.0955,0.2415,-0.307
0.0935,0.2385,-0.3095
0.0865,0.235,-0.3115
0.0765,0.229,-0.3115
0.074,0.2225,-0.3115
0.071,0.2175,-0.3125
0.061,0.211,-0.314
0.0535,0.1995,-0.318
0.048,0.196,-0.318
0.0485,0.1935,-0.315
0.0435,0.1835,-0.314
0.034,0.1735,-0.317
0.029,0.167,-0.3185
0.027,0.166,-0.318
0.0255,0.1615,-0.3205
0.019,0.157,-0.324
0.013,0.1485,-0.3255
0.006,0.138,-0.327
-0.007,0.1305,-0.3305
-0.0085,0.124,-0.328
-0.0025,0.12,-0.3275
-0.003,0.1125,-0.329
-0.013,0.1045,-0.3285
-0.025,0.0985,-0.3315
-0.026,0.091,-0.332
-0.03,0.0825,-0.3335
-0.039,0.0745,-0.3355
-0.04,0.0675,-0.336
-0.045,0.0615,-0.339
-0.051,0.053,-0.3405
-0.0595,0.046,-0.341
-0.06,0.04,-0.344
-0.058,0.033,-0.3465
-0.0705,0.027,-0.3475
-0.0765,0.0185,-0.352
-0.0785,0.0115,-0.356
-0.077,0.007,-0.358
-0.075,0.003,-0.358
-0.0805,0.0,-0.359
-0.088,-0.0045,-0.3615
-0.091,-0.004,-0.363
-0.093,-0.0105,-0.3675
-0.0995,-0.018,-0.3675
-0.102,-0.0185,-0.3665
-0.1045,-0.0215,-0.3685
-0.1035,-0.0245,-0.369
-0.1035,-0.026,-0.3685
-0.107,-0.0295,-0.368
-0.111,-0.0375,-0.3695
-0.117,-0.042,-0.3725
-0.122,-0.044,-0.3725
-0.1225,-0.0435,-0.3715
-0.121,-0.04,-0.3735
-0.122,-0.0425,-0.373
-0.1195,-0.0425,-0.3735
-0.118,-0.0455,-0.375
-0.1165,-0.0505,-0.3765
-0.115,-0.0525,-0.3795
-0.1185,-0.0535,-0.382
-0.1185,-0.054,-0.3835
-0.1185,-0.0545,-0.384
-0.1175,-0.0545,-0.383
-0.116,-0.057,-0.3815
-0.115,-0.058,-0.382
-0.116,-0.061,-0.383
-0.123,-0.063,-0.3845
-0.1255,-0.061,-0.3845
-0.1255,-0.0625,-0.385
-0.1285,-0.0665,-0.387
-0.1375,-0.071,-0.386
-0.144,-0.0745,-0.386
-0.1415,-0.075,-0.384
-0.139,-0.075,-0.3825
-0.1385,-0.076,-0.384
-0.1335,-0.0735,-0.386
-0.1335,-0.075,-0.388
-0.1355,-0.0775,-0.3885
-0.1335,-0.0765,-0.3885
-0.1365,-0.0775,-0.389
-0.1345,-0.079,-0.3875
-0.133,-0.079,-0.388
-0.1345,-0.078,-0.3895
-0.1375,-0.083,-0.389
-0.14,-0.0815,-0.3895
-0.138,-0.0735,-0.391
-0.136,-0.0755,-0.3915
-0.137,-0.0765,-0.392
-0.1395,-0.074,-0.395
-0.139,-0.074,-0.395
-0.139,-0.0705,-0.3925
-0.142,-0.07,-0.3895
-0.139,-0.076,-0.39
-0.135,-0.0765,-0.3915
-0.138,-0.0765,-0.392
-0.139,-0.0765,-0.392
-0.1375,-0.076,-0.3905
-0.1365,-0.0775,-0.3945
-0.1375,-0.08,-0.396
-0.14,-0.0775,-0.396
-0.141,-0.0775,-0.3965
-0.1375,-0.0795,-0.395
-0.1365,-0.077,-0.3945
-0.142,-0.08,-0.394
-0.141,-0.0785,-0.3955
-0.136,-0.0735,-0.3955
-0.1315,-0.0685,-0.392
-0.13,-0.068,-0.39
-0.13,-0.0705,-0.39
-0.132,-0.0665,-0.39
-0.14,-0.067,-0.39
-0.1425,-0.069,-0.3895
-0.144,-0.069,-0.3885
-0.1425,-0.07,-0.389
-0.138,-0.072,-0.39
-0.1415,-0.0735,-0.391
-0.146,-0.074,-0.3905
-0.141,-0.073,-0.3925
-0.139,-0.0735,-0.3925
-0.144,-0.074,-0.3915
-0.14,-0.0745,-0.393
-0.1395,-0.0745,-0.3925
-0.1415,-0.0715,-0.3925
-0.142,-0.0715,-0.394
-0.1435,-0.073,-0.3945
-0.1425,-0.074,-0.395
-0.142,-0.0725,-0.3925
-0.1445,-0.0675,-0.3905
-0.1445,-0.0695,-0.3935
-0.1425,-0.0765,-0.394
-0.1455,-0.0795,-0.3945
-0.146,-0.0795,-0.395
-0.1455,-0.0755,-0.3955
-0.1445,-0.072,-0.394
-0.148,-0.0755,-0.3925
-0.148,-0.08,-0.3955
-0.142,-0.0745,-0.393
-0.1425,-0.0725,-0.3925
-0.1425,-0.072,-0.393
-0.1395,-0.0695,-0.3905
-0.1395,-0.0685,-0.391
-0.142,-0.067,-0.3935
-0.1405,-0.0725,-0.3965
-0.138,-0.073,-0.3955
-0.1395,-0.069,-0.396
-0.14,-0.0685,-0.3945
-0.14,-0.066,-0.3925
-0.1415,-0.0665,-0.3915
-0.1385,-0.0655,-0.3905
-0.133,-0.062,-0.3925
-0.1325,-0.061,-0.392
-0.1365,-0.0615,-0.39
-0.1395,-0.0645,-0.391
-0.1425,-0.067,-0.3935
-0.1425,-0.0645,-0.3925
-0.139,-0.0615,-0.3925
-0.1335,-0.061,-0.3945
-0.132,-0.059,-0.394
-0.1355,-0.0585,-0.3925
-0.1375,-0.0625,-0.393
-0.138,-0.064,-0.396
-0.1375,-0.064,-0.3945
-0.137,-0.063,-0.3945
-0.1335,-0.062,-0.394
-0.129,-0.0595,-0.392
-0.1305,-0.0585,-0.3945
-0.132,-0.0605,-0.3955
-0.132,-0.061,-0.3945
-0.131,-0.06,-0.393
-0.132,-0.0585,-0.3935
-0.133,-0.0595,-0.393
-0.1295,-0.0605,-0.3905
-0.1285,-0.0615,-0.393
-0.131,-0.064,-0.3945
-0.1305,-0.0635,-0.3955
-0.134,-0.062,-0.3955
-0.1345,-0.0585,-0.394
-0.1245,-0.0585,-0.394
-0.122,-0.059,-0.3925
-0.129,-0.0585,-0.3935
-0.1325,-0.059,-0.395
-0.1265,-0.0565,-0.3925
-0.128,-0.0575,-0.3925
-0.132,-0.059,-0.3945
-0.129,-0.0555,-0.3945
-0.132,-0.055,-0.394
-0.1305,-0.055,-0.394
-0.129,-0.055,-0.393
-0.128,-0.056,-0.3935
-0.128,-0.054,-0.395
-0.136,-0.053,-0.3955
-0.138,-0.0545,-0.3965
-0.1295,-0.05,-0.3965
-0.122,-0.046,-0.395
-0.126,-0.0535,-0.3945
-0.1265,-0.0535,-0.3955
-0.1265,-0.0475,-0.3935
-0.13,-0.052,-0.3935
-0.1245,-0.0555,-0.3945
-0.123,-0.0555,-0.395
-0.128,-0.0555,-0.398
-0.1295,-0.054,-0.398
-0.129,-0.051,-0.399
-0.1285,-0.0525,-0.3995
-0.125,-0.0535,-0.401
-0.121,-0.052,-0.3995
-0.1195,-0.0555,-0.3975
-0.1215,-0.0545,-0.3995
-0.1225,-0.0525,-0.397
-0.124,-0.0545,-0.398
-0.125,-0.0525,-0.397
-0.1255,-0.05,-0.3965
-0.1265,-0.0515,-0.397
-0.1295,-0.056,-0.3975
-0.13,-0.057,-0.398
-0.126,-0.054,-0.395
-0.125,-0.052,-0.395
-0.1205,-0.049,-0.3935
-0.119,-0.0515,-0.3935
-0.1235,-0.054,-0.3945
-0.1245,-0.052,-0.393
-0.1255,-0.051,-0.3935
-0.1225,-0.0495,-0.3945
-0.122,-0.0485,-0.395
-0.124,-0.0495,-0.3945
-0.119,-0.049,-0.3955
-0.122,-0.051,-0.3965
-0.134,-0.0555,-0.397
-0.1345,-0.051,-0.396
-0.1305,-0.046,-0.394
-0.132,-0.0485,-0.395
-0.1295,-0.0485,-0.3955
-0.1255,-0.0495,-0.393
-0.127,-0.0515,-0.393
-0.1295,-0.0515,-0.394
-0.129,-0.05,-0.3955
-0.126,-0.048,-0.3975
-0.128,-0.0495,-0.401
-0.131,-0.055,-0.398
-0.1245,-0.0565,-0.394
-0.121,-0.054,-0.396
-0.1215,-0.054,-0.396
-0.1225,-0.0535,-0.3965
-0.1175,-0.0515,-0.3955
-0.116,-0.0535,-0.394
-0.1195,-0.0545,-0.3945
-0.1255,-0.0555,-0.3965
-0.129,-0.0555,-0.3955
-0.1275,-0.055,-0.395
-0.134,-0.0535,-0.3945
-0.1325,-0.0515,-0.395
-0.125,-0.051,-0.397
-0.1215,-0.05,-0.3945
-0.124,-0.0545,-0.395
-0.1315,-0.0555,-0.3955
-0.1325,-0.052,-0.3945
-0.1295,-0.053,-0.3965
-0.119,-0.053,-0.397
-0.119,-0.052,-0.3975
-0.126,-0.0565,-0.3975
-0.1235,-0.0575,-0.399
-0.1235,-0.057,-0.4005
-0.123,-0.055,-0.4005
-0.1235,-0.0555,-0.399
-0.126,-0.0605,-0.399
-0.1285,-0.0605,-0.399
-0.129,-0.0595,-0.3985
-0.126,-0.0575,-0.4005
-0.1255,-0.0575,-0.4015
-0.127,-0.058,-0.401
-0.1285,-0.0565,-0.4
-0.124,-0.0555,-0.401
-0.123,-0.0545,-0.3995
-0.1275,-0.0555,-0.398
-0.129,-0.0555,-0.3985
-0.129,-0.0575,-0.3985
-0.129,-0.06,-0.394
-0.1265,-0.06,-0.394
-0.118,-0.0575,-0.3955
-0.1155,-0.053,-0.3955
-0.1205,-0.058,-0.398
-0.133,-0.064,-0.4015
-0.1395,-0.0655,-0.404
-0.133,-0.0625,-0.4
-0.1355,-0.062,-0.398
-0.132,-0.0615,-0.4
-0.129,-0.0595,-0.4025
-0.1325,-0.0595,-0.399
-0.1285,-0.0585,-0.4
-0.128,-0.0565,-0.401
-0.1295,-0.0545,-0.3995
-0.129,-0.054,-0.4005
-0.1295,-0.0585,-0.3995
-0.1265,-0.0605,-0.4
-0.126,-0.0595,-0.3985
-0.1295,-0.059,-0.3995
-0.129,-0.058,-0.3985
-0.129,-0.058,-0.4005
-0.126,-0.057,-0.4015
-0.1145,-0.0555,-0.4015
-0.112,-0.057,-0.4065
-0.128,-0.06,-0.406
-0.132,-0.061,-0.407
-0.12,-0.0585,-0.406
-0.1145,-0.0545,-0.408
-0.1155,-0.052,-0.4095
-0.12,-0.053,-0.4065
-0.129,-0.057,-0.4055
-0.132,-0.061,-0.4075
-0.1335,-0.0595,-0.409
-0.138,-0.0595,-0.406
-0.1375,-0.06,-0.4055
-0.1345,-0.057,-0.4035
-0.129,-0.0575,-0.403
-0.1315,-0.058,-0.4045
-0.1365,-0.0565,-0.403
-0.1315,-0.05,-0.3785
-0.1265,-0.0475,-0.36
-0.125,-0.054,-0.375
-0.1265,-0.054,-0.387
-0.129,-0.0525,-0.392
-0.1255,-0.0555,-0.3935
-0.1265,-0.0585,-0.3955
-0.131,-0.059,-0.3975
-0.132,-0.057,-0.4
-0.1305,-0.0565,-0.4055
-0.126,-0.0525,-0.406
-0.1255,-0.0495,-0.406
-0.125,-0.05,-0.4045
-0.1265,-0.052,-0.4015
-0.129,-0.054,-0.4045
-0.129,-0.0555,-0.4025
-0.131,-0.056,-0.403
-0.1355,-0.059,-0.405
-0.1355,-0.06,-0.402
-0.133,-0.058,-0.4045
-0.131,-0.0615,-0.4045
-0.1285,-0.0605,-0.404
-0.129,-0.059,-0.405
-0.1295,-0.061,-0.4055
-0.1315,-0.063,-0.404
-0.1325,-0.0615,-0.404
-0.1275,-0.06,-0.4035
-0.124,-0.0615,-0.4035
-0.126,-0.0615,-0.4055
-0.126,-0.0595,-0.4065
-0.126,-0.0555,-0.4075
-0.1305,-0.0575,-0.406
-0.133,-0.059,-0.406
-0.1305,-0.058,-0.408
-0.129,-0.057,-0.4075
-0.1325,-0.0585,-0.407
-0.132,-0.061,-0.4085
-0.1315,-0.0575,-0.4085
-0.134,-0.0575,-0.4075
-0.1315,-0.0585,-0.4075
-0.1285,-0.056,-0.407
-0.13,-0.0575,-0.41
-0.133,-0.063,-0.411
-0.1305,-0.062,-0.412
-0.131,-0.0585,-0.415
-0.1335,-0.06,-0.4145
-0.1325,-0.0625,-0.4145
-0.1265,-0.0615,-0.413
-0.12,-0.0575,-0.4135
-0.126,-0.057,-0.412
-0.1265,-0.058,-0.408
-0.1315,-0.0565,-0.407
-0.132,-0.054,-0.4065
-0.1255,-0.052,-0.4055
-0.1315,-0.0535,-0.404
-0.1305,-0.057,-0.4055
-0.122,-0.055,-0.405
-0.119,-0.0505,-0.4045
-0.121,-0.051,-0.406
-0.122,-0.053,-0.406
-0.1195,-0.051,-0.4055
-0.113,-0.0475,-0.405
-0.1105,-0.05,-0.4035
-0.112,-0.0535,-0.4035
-0.1115,-0.053,-0.4015
-0.1155,-0.054,-0.3975
-0.122,-0.054,-0.3945
-0.117,-0.053,-0.392
-0.1105,-0.051,-0.3885
-0.112,-0.0505,-0.3865
-0.1145,-0.053,-0.387
-0.1155,-0.051,-0.3865
-0.107,-0.0455,-0.3865
-0.108,-0.043,-0.3865
-0.1085,-0.0415,-0.386
-0.1035,-0.0395,-0.3835
-0.1,-0.0355,-0.3815
-0.0965,-0.033,-0.383
-0.099,-0.0335,-0.3855
-0.098,-0.03,-0.3855
-0.097,-0.0285,-0.387
-0.095,-0.0275,-0.3895
-0.093,-0.022,-0.387
-0.0895,-0.021,-0.388
-0.085,-0.0235,-0.39
-0.082,-0.022,-0.3905
-0.0815,-0.022,-0.3905
-0.087,-0.023,-0.3915
-0.0855,-0.018,-0.3915
-0.0825,-0.015,-0.393
-0.0815,-0.0145,-0.3955
-0.081,-0.01,-0.398
-0.078,-0.0005,-0.4
-0.074,0.0005,-0.399
-0.073,0.0,-0.402
-0.065,0.0105,-0.4015
-0.0565,0.0195,-0.401
-0.0515,0.021,-0.401
-0.053,0.022,-0.4025
-0.0585,0.02,-0.408
-0.056,0.023,-0.408
-0.054,0.025,-0.4055
-0.052,0.0145,-0.4035
-0.046,0.0145,-0.405
-0.046,0.0175,-0.409
-0.0525,0.0095,-0.4135
-0.062,0.0015,-0.4155
-0.064,-0.0025,-0.4105
-0.0635,-0.003,-0.408
-0.0595,-0.0015,-0.4065
-0.0575,0.0,-0.4065
-0.061,0.0,-0.406
-0.06,0.0035,-0.405
-0.0655,0.001,-0.4065
-0.065,-0.0055,-0.406
-0.064,-0.0085,-0.406
-0.0705,-0.01,-0.4085
-0.068,-0.0095,-0.411
-0.063,-0.01,-0.4095
-0.0645,-0.0095,-0.411
-0.0625,-0.0115,-0.4125
-0.06,-0.008,-0.41
-0.0605,-0.0035,-0.4065
-0.0545,-0.0055,-0.4045
-0.0475,-0.0055,-0.4015
-0.043,-0.001,-0.396
-0.0425,0.0035,-0.3955
-0.0465,0.001,-0.3955
-0.0445,0.003,-0.3965
-0.0465,0.002,-0.3995
-0.0495,0.0025,-0.3995
-0.052,0.002,-0.4005
-0.06,-0.0035,-0.3995
-0.062,-0.003,-0.399
-0.064,-0.0015,-0.399
-0.069,-0.0005,-0.399
-0.074,-0.006,-0.4015
-0.079,-0.0135,-0.4005
-0.081,-0.018,-0.398
-0.091,-0.0235,-0.3945
-0.1035,-0.033,-0.395
-0.109,-0.0405,-0.399
-0.113,-0.046,-0.4005
-0.119,-0.0505,-0.401
-0.1255,-0.0465,-0.401
-0.121,-0.047,-0.4025
-0.121,-0.0545,-0.4035
-0.133,-0.0565,-0.405
-0.1355,-0.0555,-0.4055
-0.1335,-0.058,-0.4055
-0.136,-0.059,-0.4055
-0.139,-0.059,-0.4035
-0.1375,-0.062,-0.4025
-0.1375,-0.0615,-0.4025
-0.1455,-0.0645,-0.3995
-0.15,-0.0685,-0.4015
-0.1485,-0.0685,-0.403
-0.144,-0.065,-0.401
-0.1415,-0.063,-0.4035
-0.1405,-0.063,-0.4065
-0.1375,-0.062,-0.4075
-0.1365,-0.064,-0.4055
-0.133,-0.061,-0.4055
-0.1295,-0.057,-0.406
-0.137,-0.0625,-0.4045
-0.14,-0.0645,-0.4045
-0.136,-0.066,-0.4035
-0.1355,-0.065,-0.3995
-0.136,-0.0625,-0.395
-0.1415,-0.064,-0.3995
-0.14,-0.0615,-0.3985
-0.137,-0.061,-0.397
-0.1425,-0.065,-0.3985
-0.1415,-0.061,-0.3885
-0.1385,-0.0555,-0.3785
-0.1385,-0.056,-0.3815
-0.14,-0.055,-0.391
-0.135,-0.054,-0.3955
-0.134,-0.0525,-0.398
-0.136,-0.054,-0.3985
-0.1355,-0.053,-0.4025
-0.1375,-0.054,-0.4025
-0.1375,-0.0545,-0.3985
-0.1335,-0.0505,-0.4
-0.134,-0.053,-0.402
-0.1405,-0.0565,-0.4045
-0.1395,-0.0565,-0.4045
-0.135,-0.0505,-0.4045
-0.1315,-0.047,-0.4045
-0.1275,-0.0405,-0.399
-0.1235,-0.027,-0.395
-0.1225,-0.021,-0.388
-0.127,-0.0175,-0.3765
-0.13,-0.013,-0.37
-0.1255,-0.0075,-0.363
-0.1245,0.001,-0.3555
-0.1295,0.006,-0.3475
-0.1235,0.013,-0.335
-0.1175,0.0245,-0.322
-0.124,0.0325,-0.3095
-0.1215,0.0515,-0.2975
-0.0945,0.083,-0.287
-0.072,0.1125,-0.275
-0.0535,0.149,-0.2635
-0.023,0.2045,-0.25
0.0065,0.2645,-0.236
0.038,0.322,-0.224
0.086,0.4015,-0.213
0.137,0.474,-0.2005
0.181,0.534,-0.19
0.215,0.5925,-0.1865
0.248,0.644,-0.182
0.281,0.6945,-0.177
0.2975,0.727,-0.174
0.3325,0.7685,-0.1715
0.3535,0.7955,-0.1705
0.349,0.8045,-0.1785
0.351,0.8165,-0.1895
0.3475,0.8285,-0.1955
0.331,0.832,-0.206
0.323,0.847,-0.2185
0.325,0.8645,-0.234
0.3005,0.8305,-0.2505
0.291,0.806,-0.266
0.278,0.7745,-0.282
0.233,0.7075,-0.292
0.1675,0.6155,-0.304
0.0865,0.4995,-0.3135
0.0365,0.405,-0.344
0.005,0.315,-0.4035
-0.032,0.218,-0.451
-0.077,0.1205,-0.485
-0.117,0.019,-0.513
-0.14,-0.079,-0.5445
-0.174,-0.187,-0.571
-0.225,-0.293,-0.582
-0.2635,-0.369,-0.5875
-0.2855,-0.4135,-0.593
-0.294,-0.423,-0.5915
-0.2925,-0.402,-0.583
-0.286,-0.375,-0.5755
-0.2725,-0.3535,-0.564
-0.2565,-0.3365,-0.548
-0.2535,-0.3215,-0.533
-0.252,-0.2975,-0.52
-0.24,-0.276,-0.507
-0.244,-0.2595,-0.4935
-0.247,-0.2495,-0.4835
-0.233,-0.2385,-0.4735
-0.22,-0.2215,-0.4675
-0.2175,-0.2045,-0.458
-0.214,-0.1875,-0.4485
-0.206,-0.1745,-0.445
-0.206,-0.163,-0.439
-0.195,-0.1465,-0.4315
-0.1785,-0.125,-0.4225
-0.17,-0.1075,-0.4175
-0.1645,-0.096,-0.4155
-0.1625,-0.0855,-0.4135
-0.1565,-0.0745,-0.414
-0.148,-0.066,-0.4115
-0.142,-0.0615,-0.407
-0.1415,-0.0555,-0.4055
-0.1435,-0.051,-0.3995
-0.135,-0.0485,-0.3885
-0.126,-0.0435,-0.3705
-0.1275,-0.0405,-0.37
-0.1335,-0.0405,-0.386
-0.133,-0.038,-0.3915
-0.134,-0.0405,-0.397
-0.136,-0.041,-0.399
-0.1355,-0.0385,-0.3995
-0.139,-0.0395,-0.4005
-0.136,-0.036,-0.4
-0.134,-0.0345,-0.4
-0.1315,-0.0315,-0.4
-0.132,-0.029,-0.397
-0.136,-0.033,-0.394
-0.134,-0.034,-0.3975
-0.1295,-0.029,-0.398
-0.124,-0.025,-0.395
-0.12,-0.023,-0.394
-0.1225,-0.0235,-0.3925
-0.1265,-0.0245,-0.392
-0.123,-0.023,-0.3935
-0.125,-0.0245,-0.3955
-0.128,-0.026,-0.395
-0.1245,-0.022,-0.3935
-0.121,-0.0195,-0.3945
-0.121,-0.0175,-0.396
-0.1205,-0.0185,-0.397
-0.1175,-0.0235,-0.3925
-0.1175,-0.021,-0.391
-0.1175,-0.019,-0.3925
-0.1165,-0.0195,-0.3915
-0.1195,-0.0185,-0.392
-0.1185,-0.017,-0.389
-0.116,-0.015,-0.3875
-0.11,-0.013,-0.3855
-0.107,-0.013,-0.3835
-0.1115,-0.015,-0.3845
-0.1035,-0.0115,-0.385
-0.104,-0.0075,-0.3865
-0.116,-0.0125,-0.386
-0.124,-0.0205,-0.382
-0.1135,-0.0185,-0.382
-0.0975,-0.0095,-0.381
-0.1035,-0.0085,-0.3805
-0.1125,-0.0065,-0.381
-0.106,-0.005,-0.3805
-0.1015,-0.012,-0.3795
-0.1125,-0.01,-0.3785
-0.118,-0.0095,-0.381
-0.1155,-0.012,-0.3815
-0.1115,-0.008,-0.383
-0.1055,-0.005,-0.3835
-0.1055,-0.0025,-0.3845
-0.1075,-0.003,-0.3855
-0.1075,-0.0015,-0.3875
-0.103,0.004,-0.387
-0.1045,0.002,-0.3875
-0.1035,0.0005,-0.3885
-0.099,0.002,-0.385
-0.0975,0.003,-0.386
-0.0955,0.0045,-0.386
-0.1025,0.0,-0.3875
-0.106,0.0005,-0.3865
-0.101,0.007,-0.3875
-0.0935,0.0105,-0.3885
-0.091,0.01,-0.3865
-0.0965,0.007,-0.388
-0.101,0.009,-0.3895
-0.102,0.0125,-0.3925
-0.101,0.013,-0.394
-0.1005,0.0135,-0.3915
-0.098,0.0135,-0.392
-0.0995,0.0135,-0.3925
-0.099,0.016,-0.389
-0.1005,0.013,-0.3885
-0.1015,0.011,-0.3885
-0.092,0.015,-0.3905
-0.0925,0.016,-0.3905
-0.0965,0.0195,-0.3875
-0.0935,0.02,-0.387
-0.093,0.0195,-0.3865
-0.088,0.0235,-0.383
-0.0835,0.0265,-0.382
-0.079,0.0345,-0.383
-0.0735,0.037,-0.3805
-0.077,0.0365,-0.3775
-0.081,0.0375,-0.3775
-0.079,0.0365,-0.3815
-0.077,0.04,-0.3815
-0.0775,0.0415,-0.383
-0.0855,0.041,-0.384
-0.0775,0.041,-0.3825
-0.0715,0.0435,-0.3815
-0.082,0.042,-0.382
-0.0835,0.0435,-0.388
-0.083,0.054,-0.3835
-0.0785,0.0495,-0.3815
-0.07,0.046,-0.3845
-0.066,0.0515,-0.383
-0.066,0.0495,-0.3855
-0.068,0.048,-0.387
-0.0675,0.0495,-0.386
-0.0655,0.053,-0.386
-0.06,0.0565,-0.385
-0.053,0.0595,-0.386
-0.053,0.0635,-0.3865
-0.0585,0.0645,-0.382
-0.06,0.063,-0.3825
-0.053,0.0635,-0.3845
-0.0525,0.068,-0.383
-0.0585,0.0705,-0.382
-0.0585,0.0705,-0.382
-0.055,0.077,-0.382
-0.0515,0.08,-0.3775
-0.0505,0.082,-0.3765
-0.048,0.0885,-0.3805
-0.0435,0.091,-0.38
-0.0395,0.0925,-0.3805
-0.0345,0.096,-0.3785
-0.0325,0.1015,-0.3765
-0.0355,0.1025,-0.3775
-0.0375,0.102,-0.376
-0.0405,0.104,-0.375
-0.037,0.1065,-0.3755
-0.0295,0.109,-0.374
-0.026,0.1115,-0.3745
-0.025,0.1135,-0.374
-0.026,0.114,-0.373
-0.02,0.1205,-0.373
-0.0215,0.124,-0.374
-0.0225,0.1275,-0.38
-0.015,0.1315,-0.3785
-0.015,0.135,-0.38
-0.0135,0.1375,-0.374
-0.009,0.1405,-0.3755
-0.0045,0.1485,-0.3655
0.001,0.1505,-0.328
0.0065,0.155,-0.3405
0.0165,0.1645,-0.3535
0.0225,0.1695,-0.3515
0.0125,0.169,-0.357
0.0055,0.1695,-0.3565
0.015,0.173,-0.355
0.017,0.1755,-0.3555
0.0105,0.1825,-0.357
0.016,0.1905,-0.3545
0.024,0.1985,-0.3565
0.0305,0.203,-0.355
0.03,0.205,-0.356
0.0305,0.212,-0.356
0.0405,0.219,-0.349
0.0425,0.226,-0.348
0.0385,0.229,-0.35
0.0345,0.2295,-0.3505
0.0405,0.24,-0.3485
0.0505,0.2465,-0.348
0.0535,0.247,-0.3445
0.064,0.2545,-0.34
0.0745,0.2635,-0.3385
0.073,0.271,-0.3375
0.0715,0.273,-0.339
0.08,0.273,-0.3395
0.0855,0.277,-0.338
0.094,0.288,-0.3365
0.097,0.294,-0.337
0.0935,0.295,-0.338
0.098,0.302,-0.3355
0.1015,0.304,-0.339
0.1045,0.3075,-0.3405
0.0995,0.312,-0.3375
0.096,0.3125,-0.3375
0.1015,0.313,-0.3325
0.106,0.318,-0.33
0.1095,0.3255,-0.331
0.115,0.329,-0.3315
0.121,0.3305,-0.3305
0.124,0.332,-0.3285
0.127,0.3365,-0.324
0.1245,0.3405,-0.321
0.125,0.3445,-0.321
0.128,0.3515,-0.3225
0.129,0.35,-0.325
0.139,0.354,-0.3205
0.1375,0.357,-0.3185
0.13,0.352,-0.3055
0.1325,0.3535,-0.2895
0.1395,0.3595,-0.2985
0.147,0.365,-0.308
0.1475,0.3595,-0.3135
0.1495,0.3625,-0.317
0.1505,0.37,-0.316
0.146,0.3705,-0.313
0.1415,0.367,-0.3115
0.141,0.3605,-0.3125
0.1415,0.3635,-0.312
0.142,0.363,-0.3125
0.147,0.364,-0.315
0.1485,0.367,-0.3165
0.1475,0.3695,-0.314
0.145,0.368,-0.312
0.145,0.3665,-0.313
0.1435,0.3675,-0.3155
0.1405,0.362,-0.3165
0.147,0.3665,-0.3165
0.1415,0.3645,-0.3165
0.1375,0.3585,-0.3155
0.1355,0.357,-0.315
0.1305,0.3525,-0.3125
0.13,0.3495,-0.313
0.125,0.344,-0.314
0.122,0.341,-0.312
0.117,0.339,-0.3125
0.108,0.3285,-0.3155
0.1,0.317,-0.315
0.102,0.315,-0.314
0.105,0.3135,-0.3135
0.1005,0.306,-0.314
0.1,0.3,-0.3155
0.0985,0.2965,-0.317
0.087,0.291,-0.3195
0.083,0.2855,-0.3195
0.0835,0.28,-0.3185
0.083,0.2735,-0.3155
0.077,0.2675,-0.3185
0.0615,0.2565,-0.322
0.0515,0.2475,-0.3205
0.0435,0.2395,-0.3175
0.0415,0.2315,-0.317
0.0395,0.2215,-0.321
0.03,0.2105,-0.3215
0.0215,0.204,-0.323
0.015,0.198,-0.3255
0.013,0.194,-0.325
0.006,0.1825,-0.327
-0.0035,0.1765,-0.327
-0.005,0.172,-0.331
-0.007,0.1585,-0.337
-0.0135,0.152,-0.3385
-0.0195,0.1475,-0.339
-0.0235,0.1415,-0.3405
-0.0195,0.136,-0.344
-0.0225,0.131,-0.342
-0.0345,0.122,-0.3415
-0.04,0.1125,-0.3445
-0.0435,0.109,-0.345
-0.0475,0.1065,-0.349
-0.0495,0.1,-0.3515
-0.057,0.093,-0.3535
-0.06,0.088,-0.3555
-0.0575,0.081,-0.3565
-0.062,0.078,-0.3595
-0.0655,0.0765,-0.363
-0.0725,0.0685,-0.3655
-0.0735,0.061,-0.3655
-0.0725,0.059,-0.369
-0.075,0.058,-0.3715
-0.0745,0.052,-0.3695
-0.081,0.0465,-0.37
-0.0855,0.0415,-0.3715
-0.086,0.038,-0.3725
-0.087,0.035,-0.373
-0.0855,0.033,-0.375
-0.089,0.031,-0.377
-0.092,0.025,-0.377
-0.091,0.0245,-0.377
-0.0915,0.0285,-0.377
-0.091,0.026,-0.375
-0.0925,0.0215,-0.3745
-0.0915,0.02,-0.3775
-0.091,0.018,-0.378
-0.1005,0.0165,-0.376
-0.102,0.013,-0.378
-0.0975,0.008,-0.3795
-0.1,0.0075,-0.3815
-0.099,0.0085,-0.384
-0.104,0.005,-0.3865
-0.1075,0.001,-0.387
-0.105,0.0,-0.3875
-0.105,-0.0025,-0.386
-0.1065,-0.002,-0.386
-0.1085,-0.0015,-0.391
-0.1095,-0.003,-0.39
-0.1125,-0.0045,-0.3875
-0.1095,-0.0065,-0.39
-0.1085,-0.007,-0.39
-0.1105,-0.006,-0.387
-0.109,-0.0005,-0.3865
-0.112,-0.003,-0.3895
-0.1135,-0.005,-0.391
-0.11,0.0,-0.39
-0.12,-0.007,-0.3915
-0.1295,-0.013,-0.392
-0.1215,-0.009,-0.39
-0.114,-0.0075,-0.3905
-0.1075,-0.0055,-0.39
-0.1085,-0.003,-0.3865
-0.12,-0.002,-0.387
-0.122,-0.0015,-0.3885
-0.114,-0.001,-0.391
-0.114,-0.0045,-0.393
