i,vx,vy
-0.009,-0.187,-0.2215
-0.01,-0.187,-0.223
-0.015,-0.188,-0.2275
-0.0195,-0.189,-0.2265
-0.0195,-0.186,-0.219
-0.0185,-0.1875,-0.212
-0.018,-0.188,-0.211
-0.0225,-0.1885,-0.2115
-0.028,-0.19,-0.206
-0.029,-0.186,-0.2065
-0.027,-0.188,-0.2115
-0.027,-0.1925,-0.216
-0.0285,-0.197,-0.221
-0.03,-0.2,-0.2275
-0.0325,-0.2035,-0.2345
-0.037,-0.208,-0.2375
-0.039,-0.21,-0.235
-0.0405,-0.214,-0.234
-0.044,-0.2195,-0.2395
-0.048,-0.2235,-0.245
-0.0545,-0.2265,-0.2455
-0.0535,-0.2265,-0.2465
-0.0535,-0.2255,-0.248
-0.0615,-0.229,-0.2465
-0.064,-0.2315,-0.2435
-0.066,-0.233,-0.244
-0.071,-0.2365,-0.253
-0.0715,-0.2405,-0.259
-0.07,-0.243,-0.259
-0.07,-0.2455,-0.2625
-0.071,-0.247,-0.2665
-0.0695,-0.251,-0.2695
-0.068,-0.253,-0.273
-0.0675,-0.2535,-0.277
-0.0675,-0.2565,-0.28
-0.066,-0.258,-0.284
-0.068,-0.2605,-0.2835
-0.071,-0.2605,-0.2815
-0.071,-0.2615,-0.2825
-0.071,-0.263,-0.286
-0.0665,-0.2635,-0.2885
-0.0645,-0.2635,-0.2885
-0.0675,-0.265,-0.288
-0.067,-0.266,-0.2845
-0.067,-0.265,-0.283
-0.0695,-0.267,-0.2855
-0.0715,-0.266,-0.2905
-0.072,-0.267,-0.2885
-0.0705,-0.2655,-0.283
-0.073,-0.265,-0.282
-0.072,-0.2665,-0.2785
-0.0715,-0.2675,-0.278
-0.075,-0.2695,-0.281
-0.073,-0.269,-0.2875
-0.074,-0.27,-0.2935
-0.076,-0.27,-0.2905
-0.0765,-0.2695,-0.2875
-0.075,-0.268,-0.288
-0.0745,-0.267,-0.286
-0.0765,-0.2675,-0.2825
-0.0775,-0.2675,-0.2845
-0.078,-0.2685,-0.2895
-0.076,-0.268,-0.287
-0.0785,-0.267,-0.2815
-0.079,-0.2675,-0.2805
-0.077,-0.2685,-0.283
-0.0785,-0.268,-0.284
-0.0785,-0.267,-0.2825
-0.078,-0.268,-0.28
-0.0775,-0.27,-0.2825
-0.0785,-0.272,-0.2825
-0.0805,-0.2725,-0.2835
-0.079,-0.275,-0.2895
-0.076,-0.2755,-0.295
-0.0755,-0.2745,-0.303
-0.0765,-0.2765,-0.313
-0.0715,-0.279,-0.3265
-0.063,-0.2735,-0.336
-0.0565,-0.2675,-0.342
-0.0545,-0.2645,-0.3465
-0.0535,-0.262,-0.349
-0.0555,-0.2645,-0.347
-0.0635,-0.2655,-0.333
-0.075,-0.268,-0.3165
-0.0785,-0.265,-0.298
-0.067,-0.2375,-0.2755
-0.06,-0.205,-0.2635
-0.053,-0.174,-0.2515
-0.034,-0.1305,-0.2385
-0.0165,-0.0835,-0.225
-0.003,-0.034,-0.205
0.0195,0.0175,-0.1905
0.0435,0.071,-0.177
0.071,0.133,-0.161
0.1085,0.2165,-0.148
0.1535,0.333,-0.1335
0.198,0.461,-0.107
0.225,0.5805,-0.062
0.2405,0.6995,-0.0065
0.2615,0.8365,0.053
0.2885,0.989,0.1145
0.328,1.1525,0.172
0.377,1.3215,0.217
0.4125,1.4765,0.2595
0.4415,1.619,0.298
0.4665,1.7565,0.3335
0.489,1.872,0.378
0.519,1.973,0.4235
0.539,2.052,0.4565
0.5525,2.0925,0.4665
0.556,2.101,0.4775
0.55,2.0865,0.5045
0.5325,2.04,0.5325
0.5105,1.9495,0.551
0.488,1.853,0.564
0.45,1.7395,0.587
0.4075,1.602,0.6055
0.3595,1.464,0.6075
0.309,1.327,0.616
0.256,1.1835,0.627
0.2045,1.041,0.625
0.1605,0.905,0.6245
0.116,0.7625,0.6325
0.0695,0.6205,0.6465
0.027,0.488,0.643
-0.0055,0.371,0.63
-0.028,0.2705,0.6185
-0.0305,0.2105,0.5835
-0.031,0.171,0.543
-0.0405,0.126,0.5115
-0.0455,0.088,0.4675
-0.05,0.0455,0.4145
-0.0555,-0.005,0.367
-0.0615,-0.0455,0.3165
-0.061,-0.0755,0.274
-0.07,-0.1125,0.2545
-0.0795,-0.146,0.2395
-0.078,-0.1675,0.2275
-0.0805,-0.184,0.211
-0.084,-0.201,0.183
-0.082,-0.2075,0.16
-0.081,-0.216,0.131
-0.077,-0.2215,0.0975
-0.072,-0.2255,0.0645
-0.076,-0.2375,0.0345
-0.078,-0.2395,0.017
-0.08,-0.2385,-0.002
-0.081,-0.2345,-0.017
-0.0775,-0.2285,-0.0275
-0.0775,-0.2245,-0.042
-0.0805,-0.225,-0.0615
-0.0765,-0.225,-0.081
-0.0695,-0.2195,-0.0915
-0.067,-0.212,-0.1085
-0.065,-0.208,-0.1235
-0.062,-0.2055,-0.1305
-0.0625,-0.205,-0.1415
-0.0635,-0.2045,-0.151
-0.064,-0.203,-0.1575
-0.0665,-0.207,-0.166
-0.066,-0.2095,-0.1755
-0.0665,-0.212,-0.1805
-0.0655,-0.2155,-0.1835
-0.0615,-0.216,-0.1835
-0.0605,-0.218,-0.185
-0.063,-0.2205,-0.1915
-0.0665,-0.2235,-0.1975
-0.0665,-0.2255,-0.198
-0.067,-0.2245,-0.199
-0.069,-0.2265,-0.204
-0.0675,-0.2245,-0.202
-0.065,-0.2265,-0.201
-0.0665,-0.2285,-0.205
-0.0655,-0.2275,-0.21
-0.0615,-0.23,-0.2135
-0.0585,-0.2295,-0.2105
-0.0555,-0.2285,-0.21
-0.0565,-0.231,-0.2145
-0.0575,-0.2335,-0.214
-0.0565,-0.2325,-0.215
-0.059,-0.233,-0.2165
-0.062,-0.232,-0.221
-0.0605,-0.23,-0.223
-0.061,-0.231,-0.225
-0.063,-0.2315,-0.2275
-0.063,-0.2315,-0.224
-0.0645,-0.231,-0.225
-0.0625,-0.2315,-0.2245
-0.0615,-0.232,-0.2255
-0.0635,-0.231,-0.227
-0.0635,-0.229,-0.2275
-0.0655,-0.2275,-0.2275
-0.0615,-0.2275,-0.2205
-0.0565,-0.2265,-0.2215
-0.0555,-0.2265,-0.225
-0.0565,-0.2265,-0.2255
-0.0575,-0.2245,-0.2275
-0.0565,-0.223,-0.23
-0.057,-0.2235,-0.2305
-0.056,-0.222,-0.2295
-0.0545,-0.222,-0.2305
-0.0535,-0.224,-0.2295
-0.051,-0.2215,-0.2275
-0.0505,-0.2205,-0.2245
-0.048,-0.2205,-0.223
-0.0475,-0.2195,-0.221
-0.051,-0.219,-0.221
-0.0475,-0.219,-0.223
-0.05,-0.219,-0.2225
-0.0555,-0.22,-0.224
-0.0595,-0.2205,-0.2225
-0.059,-0.2185,-0.2195
-0.0525,-0.2185,-0.2205
-0.051,-0.218,-0.222
-0.053,-0.2185,-0.223
-0.0535,-0.219,-0.224
-0.0515,-0.218,-0.222
-0.0495,-0.2175,-0.219
-0.051,-0.218,-0.2165
-0.0545,-0.2185,-0.2195
-0.0545,-0.218,-0.2225
-0.0545,-0.2165,-0.2225
-0.0555,-0.2165,-0.218
-0.056,-0.2175,-0.212
-0.0575,-0.215,-0.213
-0.0565,-0.215,-0.214
-0.057,-0.214,-0.215
-0.0595,-0.213,-0.2135
-0.0595,-0.214,-0.213
-0.057,-0.214,-0.2135
-0.055,-0.214,-0.212
-0.0555,-0.214,-0.213
-0.057,-0.2135,-0.2145
-0.0525,-0.213,-0.2155
-0.0505,-0.2135,-0.214
-0.0525,-0.213,-0.2145
-0.054,-0.2115,-0.215
-0.0535,-0.2115,-0.2125
-0.0525,-0.2115,-0.212
-0.052,-0.212,-0.2125
-0.0475,-0.212,-0.212
-0.0455,-0.211,-0.209
-0.047,-0.21,-0.206
-0.049,-0.2105,-0.2045
-0.051,-0.2105,-0.203
-0.0505,-0.209,-0.206
-0.05,-0.2085,-0.2075
-0.051,-0.208,-0.206
-0.0495,-0.2055,-0.205
-0.0475,-0.204,-0.202
-0.0485,-0.205,-0.202
-0.045,-0.203,-0.2005
-0.043,-0.2005,-0.201
-0.041,-0.1995,-0.204
-0.0395,-0.1985,-0.204
-0.043,-0.199,-0.2005
-0.044,-0.198,-0.196
-0.0435,-0.1965,-0.195
-0.0405,-0.193,-0.1965
-0.0405,-0.1925,-0.1975
-0.0435,-0.193,-0.197
-0.043,-0.192,-0.196
-0.0455,-0.1925,-0.1965
-0.046,-0.19,-0.1955
-0.047,-0.188,-0.193
-0.048,-0.187,-0.19
-0.045,-0.1865,-0.186
-0.045,-0.1875,-0.1865
-0.0465,-0.1865,-0.186
-0.047,-0.1865,-0.1865
-0.047,-0.186,-0.1835
-0.0455,-0.185,-0.1785
-0.042,-0.184,-0.1815
-0.0425,-0.1825,-0.1845
-0.046,-0.1815,-0.1855
-0.045,-0.179,-0.1815
-0.0445,-0.176,-0.1805
-0.0435,-0.1715,-0.18
-0.0435,-0.1755,-0.18
-0.0415,-0.1765,-0.181
-0.04,-0.173,-0.1765
-0.0405,-0.1725,-0.18
-0.035,-0.1675,-0.178
-0.0335,-0.166,-0.173
-0.037,-0.165,-0.1715
-0.0355,-0.162,-0.167
-0.0355,-0.1605,-0.168
-0.0355,-0.1605,-0.167
-0.036,-0.159,-0.165
-0.037,-0.1555,-0.1645
-0.0355,-0.154,-0.1635
-0.0325,-0.1535,-0.16
-0.03,-0.1505,-0.1585
-0.03,-0.15,-0.162
-0.0315,-0.1495,-0.1645
-0.03,-0.147,-0.1625
-0.0295,-0.1445,-0.1595
-0.029,-0.1405,-0.1585
-0.0255,-0.14,-0.157
-0.026,-0.1365,-0.1555
-0.0225,-0.135,-0.154
-0.0185,-0.1315,-0.153
-0.017,-0.1265,-0.1485
-0.016,-0.127,-0.1435
-0.019,-0.124,-0.1455
-0.0205,-0.122,-0.146
-0.018,-0.119,-0.1445
-0.0155,-0.1175,-0.142
-0.0145,-0.1165,-0.1415
-0.012,-0.1125,-0.137
-0.013,-0.108,-0.1315
-0.0125,-0.1055,-0.1315
-0.0095,-0.1035,-0.128
-0.009,-0.1,-0.1285
-0.009,-0.097,-0.1285
-0.004,-0.092,-0.1245
-0.005,-0.0885,-0.1225
-0.0045,-0.0845,-0.12
0.0015,-0.0805,-0.114
0.0,-0.0785,-0.1145
-0.001,-0.074,-0.117
0.0005,-0.0705,-0.116
0.0015,-0.067,-0.114
0.0,-0.0625,-0.1105
0.005,-0.0585,-0.1025
0.008,-0.0535,-0.098
0.0085,-0.0495,-0.0955
0.011,-0.0465,-0.091
0.0125,-0.043,-0.0885
0.018,-0.037,-0.0795
0.015,-0.031,-0.0765
0.014,-0.0265,-0.0765
0.016,-0.0225,-0.074
0.015,-0.0185,-0.0775
0.0175,-0.014,-0.0745
0.019,-0.01,-0.0695
0.024,-0.004,-0.062
0.0255,0.0035,-0.056
0.025,0.011,-0.0515
0.031,0.014,-0.045
0.033,0.018,-0.046
0.0315,0.0235,-0.0485
0.0285,0.0285,-0.0445
0.0285,0.0355,-0.038
0.031,0.04,-0.0335
0.0345,0.0465,-0.0325
0.038,0.0535,-0.029
0.0375,0.0585,-0.0225
0.0385,0.065,-0.0155
0.04,0.0705,-0.01
0.0415,0.0775,-0.0075
0.042,0.083,-0.004
0.045,0.089,0.0035
0.0495,0.094,0.006
0.054,0.0985,0.0065
0.0555,0.105,0.0145
0.0555,0.11,0.02
0.056,0.1155,0.0215
0.0555,0.122,0.0195
0.0595,0.1275,0.0235
0.0655,0.133,0.0295
0.0665,0.1395,0.0325
0.0685,0.145,0.0385
0.067,0.149,0.0415
0.065,0.1545,0.0465
0.0655,0.159,0.0495
0.0645,0.16,0.0505
0.066,0.166,0.059
0.0695,0.174,0.065
0.067,0.1755,0.067
0.0655,0.1745,0.069
0.066,0.178,0.071
0.067,0.1835,0.0695
0.0735,0.188,0.069
0.0765,0.1905,0.0725
0.075,0.195,0.0745
0.0775,0.198,0.075
0.078,0.1985,0.081
0.0785,0.2005,0.089
0.083,0.2035,0.0895
0.083,0.2055,0.0865
0.0855,0.2075,0.085
0.0865,0.211,0.0875
0.084,0.212,0.0955
0.084,0.2125,0.1
0.083,0.2155,0.0955
0.081,0.215,0.094
0.0815,0.215,0.098
0.083,0.218,0.1005
0.082,0.2195,0.102
0.08,0.219,0.102
0.079,0.2165,0.1
0.0795,0.2145,0.096
0.078,0.212,0.091
0.0725,0.2105,0.0875
0.0675,0.2075,0.086
0.066,0.2045,0.0855
0.066,0.202,0.083
0.065,0.1975,0.0785
0.0665,0.1935,0.075
0.066,0.187,0.073
0.0605,0.181,0.065
0.06,0.174,0.0585
0.057,0.1665,0.054
0.054,0.163,0.0545
0.053,0.156,0.052
0.0505,0.148,0.044
0.0475,0.139,0.042
0.0435,0.132,0.037
0.0395,0.124,0.03
0.0345,0.1125,0.0245
0.029,0.104,0.019
0.0255,0.0965,0.0165
0.0245,0.0885,0.0085
0.026,0.079,-0.003
0.0245,0.0705,-0.0105
0.022,0.063,-0.0135
0.0185,0.0545,-0.0175
0.014,0.0465,-0.0215
0.0145,0.038,-0.0245
0.0145,0.029,-0.0315
0.0145,0.021,-0.0385
0.012,0.013,-0.0435
0.0095,0.0055,-0.045
0.0075,-0.0015,-0.0485
0.004,-0.009,-0.0535
0.0055,-0.015,-0.058
0.0025,-0.0215,-0.062
0.0,-0.0295,-0.068
-0.0005,-0.0355,-0.073
-0.0055,-0.041,-0.0745
-0.0065,-0.0485,-0.0785
-0.0095,-0.0545,-0.084
-0.0095,-0.059,-0.09
-0.011,-0.0655,-0.0945
-0.016,-0.0725,-0.102
-0.016,-0.075,-0.1055
-0.018,-0.0785,-0.109
-0.022,-0.085,-0.1125
-0.0225,-0.0895,-0.113
-0.0225,-0.094,-0.117
-0.028,-0.0995,-0.119
-0.0275,-0.1035,-0.12
-0.0295,-0.107,-0.124
-0.035,-0.113,-0.1315
-0.034,-0.1165,-0.134
-0.0365,-0.1195,-0.1375
-0.037,-0.1235,-0.139
-0.0365,-0.1255,-0.1345
-0.036,-0.124,-0.1325
-0.0365,-0.124,-0.132
-0.0395,-0.132,-0.1395
-0.0405,-0.1365,-0.1455
-0.0385,-0.1355,-0.148
-0.037,-0.1365,-0.1505
-0.037,-0.1395,-0.149
-0.0385,-0.1425,-0.1515
-0.043,-0.144,-0.156
-0.0435,-0.1455,-0.1555
-0.04,-0.1475,-0.153
-0.0405,-0.1485,-0.1555
-0.039,-0.151,-0.1585
-0.037,-0.1515,-0.156
-0.0425,-0.1525,-0.156
-0.045,-0.155,-0.154
-0.043,-0.155,-0.1545
-0.0435,-0.158,-0.156
-0.0455,-0.159,-0.156
-0.0475,-0.1595,-0.158
-0.0465,-0.1605,-0.155
-0.0425,-0.1605,-0.1575
-0.0465,-0.1615,-0.159
-0.049,-0.1615,-0.1605
-0.04,-0.16,-0.1605
-0.0395,-0.1595,-0.158
-0.0435,-0.1605,-0.1615
-0.0355,-0.159,-0.1535
-0.0365,-0.1585,-0.1535
-0.0435,-0.16,-0.16
-0.0435,-0.1625,-0.161
-0.0435,-0.163,-0.1635
-0.043,-0.1635,-0.1615
-0.045,-0.1655,-0.162
-0.049,-0.166,-0.161
-0.0525,-0.1685,-0.1615
-0.0565,-0.168,-0.162
-0.057,-0.167,-0.1605
-0.054,-0.1685,-0.1635
-0.057,-0.168,-0.1645
-0.057,-0.1685,-0.167
-0.0545,-0.168,-0.1645
-0.054,-0.169,-0.158
-0.052,-0.17,-0.1575
-0.05,-0.1695,-0.1625
-0.048,-0.1705,-0.1645
-0.047,-0.17,-0.164
-0.0485,-0.17,-0.166
-0.0505,-0.17,-0.165
-0.0505,-0.1715,-0.163
-0.048,-0.1735,-0.164
-0.0465,-0.1715,-0.1655
-0.0475,-0.1725,-0.166
-0.0465,-0.1735,-0.166
-0.0495,-0.172,-0.165
-0.054,-0.1725,-0.162
-0.0535,-0.1725,-0.1605
-0.055,-0.174,-0.1595
-0.056,-0.174,-0.16
-0.054,-0.1735,-0.161
-0.054,-0.1755,-0.1615
-0.054,-0.1765,-0.159
-0.0545,-0.177,-0.161
-0.0545,-0.177,-0.1625
-0.0535,-0.1785,-0.1625
-0.054,-0.1795,-0.166
-0.054,-0.1775,-0.165
-0.051,-0.177,-0.1625
-0.0525,-0.177,-0.1635
-0.054,-0.1785,-0.166
-0.0545,-0.179,-0.167
-0.0545,-0.1785,-0.1645
-0.053,-0.1805,-0.1655
-0.0535,-0.1805,-0.1645
-0.0515,-0.179,-0.1645
-0.0505,-0.18,-0.1655
-0.05,-0.1795,-0.1635
-0.0535,-0.18,-0.1635
-0.055,-0.1815,-0.163
-0.0545,-0.18,-0.1665
-0.057,-0.18,-0.164
-0.0575,-0.1805,-0.162
-0.0565,-0.18,-0.163
-0.052,-0.182,-0.16
-0.049,-0.182,-0.1645
-0.0525,-0.1825,-0.1675
-0.0535,-0.183,-0.168
-0.051,-0.1825,-0.1665
-0.0495,-0.182,-0.164
-0.0475,-0.1825,-0.162
-0.049,-0.1835,-0.1615
-0.0485,-0.1825,-0.165
-0.049,-0.1835,-0.1655
-0.0525,-0.186,-0.166
-0.0545,-0.186,-0.1635
-0.0555,-0.184,-0.163
-0.0575,-0.185,-0.166
-0.0605,-0.186,-0.1675
-0.0605,-0.186,-0.1685
-0.061,-0.185,-0.165
-0.0565,-0.181,-0.164
-0.058,-0.184,-0.163
-0.0615,-0.187,-0.1645
-0.0575,-0.185,-0.167
-0.0605,-0.185,-0.1695
-0.061,-0.1845,-0.173
-0.0605,-0.184,-0.17
-0.061,-0.1855,-0.168
-0.059,-0.1845,-0.1675
-0.057,-0.1845,-0.1675
-0.057,-0.186,-0.1695
-0.06,-0.187,-0.174
-0.057,-0.187,-0.1765
-0.0535,-0.186,-0.177
-0.0515,-0.188,-0.174
-0.05,-0.188,-0.1715
-0.056,-0.1885,-0.176
-0.0555,-0.1895,-0.174
-0.052,-0.1875,-0.1715
-0.0545,-0.1905,-0.172
-0.0535,-0.1895,-0.1705
-0.0555,-0.188,-0.171
-0.0565,-0.187,-0.1705
-0.054,-0.186,-0.171
-0.0535,-0.1865,-0.171
-0.053,-0.186,-0.177
-0.0535,-0.1865,-0.181
-0.0535,-0.1855,-0.177
-0.0485,-0.1855,-0.1725
-0.048,-0.185,-0.1685
-0.0535,-0.1845,-0.1725
-0.0565,-0.186,-0.1765
-0.054,-0.187,-0.175
-0.0545,-0.1865,-0.1755
-0.054,-0.185,-0.172
-0.054,-0.1845,-0.168
-0.0535,-0.184,-0.1695
-0.0515,-0.1835,-0.1705
-0.056,-0.1845,-0.1705
-0.0575,-0.184,-0.1715
-0.055,-0.182,-0.1695
-0.054,-0.181,-0.1685
-0.059,-0.182,-0.1705
-0.0575,-0.181,-0.174
-0.0545,-0.182,-0.1735
-0.0555,-0.1825,-0.1745
-0.052,-0.1825,-0.176
-0.054,-0.1815,-0.175
-0.0525,-0.18,-0.1765
-0.051,-0.1805,-0.177
-0.0525,-0.181,-0.1805
-0.0505,-0.182,-0.185
-0.0505,-0.1815,-0.183
-0.0495,-0.1815,-0.182
-0.0455,-0.1805,-0.1795
-0.0435,-0.18,-0.1755
-0.046,-0.1805,-0.1755
-0.05,-0.181,-0.1735
-0.0555,-0.1835,-0.1745
-0.0575,-0.1845,-0.179
-0.057,-0.183,-0.1805
-0.0555,-0.184,-0.1775
-0.053,-0.184,-0.171
-0.052,-0.1835,-0.174
-0.049,-0.182,-0.1795
-0.043,-0.181,-0.1785
-0.0455,-0.1815,-0.18
-0.047,-0.1815,-0.183
-0.043,-0.181,-0.1825
-0.0435,-0.18,-0.181
-0.0465,-0.182,-0.184
-0.0465,-0.1825,-0.1855
-0.0465,-0.18,-0.187
-0.0485,-0.1805,-0.1885
-0.0515,-0.182,-0.187
-0.052,-0.183,-0.1865
-0.0455,-0.1805,-0.1835
-0.0435,-0.18,-0.182
-0.046,-0.1835,-0.1835
-0.0455,-0.1825,-0.1835
-0.0445,-0.183,-0.1835
-0.0475,-0.184,-0.1855
-0.048,-0.1815,-0.184
-0.0475,-0.1815,-0.182
-0.045,-0.1785,-0.1835
-0.044,-0.179,-0.183
-0.052,-0.1855,-0.1865
-0.0565,-0.186,-0.188
-0.057,-0.1855,-0.1875
-0.0575,-0.186,-0.1915
-0.0545,-0.186,-0.1935
-0.054,-0.187,-0.1945
-0.054,-0.1875,-0.195
-0.055,-0.186,-0.191
-0.0545,-0.185,-0.186
-0.053,-0.1855,-0.1875
-0.056,-0.1845,-0.193
-0.057,-0.1865,-0.194
-0.057,-0.189,-0.1925
-0.057,-0.189,-0.1915
-0.0575,-0.1885,-0.1895
-0.0565,-0.189,-0.188
-0.054,-0.188,-0.1875
-0.0545,-0.1875,-0.1895
-0.052,-0.189,-0.1905
-0.051,-0.1905,-0.1915
-0.055,-0.1915,-0.196
-0.055,-0.1915,-0.195
-0.051,-0.191,-0.1945
-0.0495,-0.191,-0.1965
-0.053,-0.191,-0.1945
-0.0565,-0.192,-0.1995
-0.0545,-0.1905,-0.1985
-0.0545,-0.19,-0.194
-0.0585,-0.1925,-0.1945
-0.0615,-0.192,-0.1975
-0.0645,-0.1935,-0.202
-0.061,-0.195,-0.198
-0.057,-0.1945,-0.196
-0.0605,-0.1975,-0.1995
-0.0635,-0.1975,-0.2035
-0.0645,-0.198,-0.2045
-0.0655,-0.199,-0.2035
-0.066,-0.199,-0.204
-0.0635,-0.1995,-0.204
-0.0595,-0.2005,-0.2025
-0.057,-0.2005,-0.201
-0.059,-0.2,-0.198
-0.0605,-0.2005,-0.199
-0.063,-0.201,-0.201
-0.0625,-0.1995,-0.2
-0.057,-0.2,-0.1995
-0.0585,-0.2005,-0.2015
-0.0615,-0.1995,-0.2025
-0.0625,-0.201,-0.1985
-0.0615,-0.2005,-0.1965
-0.0625,-0.2015,-0.1985
-0.0645,-0.2015,-0.201
-0.0665,-0.2015,-0.199
-0.067,-0.203,-0.198
-0.0635,-0.2015,-0.1975
-0.064,-0.203,-0.196
-0.064,-0.203,-0.1965
-0.0655,-0.2025,-0.1955
-0.0635,-0.202,-0.1975
-0.0605,-0.203,-0.1985
-0.063,-0.2035,-0.1975
-0.064,-0.2035,-0.1995
-0.0635,-0.2035,-0.1985
-0.0645,-0.204,-0.1985
-0.0635,-0.206,-0.2025
-0.0625,-0.205,-0.2035
-0.065,-0.2075,-0.2065
-0.068,-0.2075,-0.2075
-0.069,-0.2065,-0.2035
-0.0665,-0.2075,-0.2005
-0.065,-0.2085,-0.1995
-0.063,-0.21,-0.198
-0.062,-0.2095,-0.195
-0.064,-0.2095,-0.196
-0.064,-0.2095,-0.1985
-0.0655,-0.209,-0.199
-0.068,-0.21,-0.2
-0.0655,-0.2095,-0.2005
-0.063,-0.208,-0.1985
-0.0605,-0.2095,-0.2005
-0.0605,-0.2105,-0.204
-0.059,-0.2095,-0.204
-0.0575,-0.2075,-0.2055
-0.0595,-0.209,-0.207
-0.0565,-0.2095,-0.2055
-0.054,-0.21,-0.208
-0.0565,-0.21,-0.2125
-0.0575,-0.2105,-0.2105
-0.061,-0.212,-0.2105
-0.0625,-0.211,-0.211
-0.0565,-0.2085,-0.2045
-0.055,-0.21,-0.197
-0.058,-0.216,-0.2
-0.061,-0.214,-0.205
-0.064,-0.2135,-0.2015
-0.061,-0.2145,-0.198
-0.0605,-0.214,-0.199
-0.0635,-0.215,-0.202
-0.061,-0.2135,-0.206
-0.058,-0.214,-0.206
-0.0575,-0.215,-0.2025
-0.061,-0.214,-0.2035
-0.0635,-0.2135,-0.209
-0.06,-0.214,-0.2075
-0.0575,-0.214,-0.2065
-0.06,-0.215,-0.2125
-0.0585,-0.215,-0.2155
-0.0555,-0.214,-0.217
-0.0575,-0.215,-0.2165
-0.0545,-0.216,-0.211
-0.053,-0.2165,-0.2055
-0.0535,-0.2155,-0.2055
-0.056,-0.2165,-0.2085
-0.0575,-0.217,-0.2095
-0.0575,-0.2155,-0.208
-0.0585,-0.216,-0.207
-0.0575,-0.2165,-0.209
-0.06,-0.2175,-0.2105
-0.0575,-0.218,-0.209
-0.054,-0.2175,-0.2115
-0.0545,-0.2175,-0.2115
-0.0505,-0.2165,-0.206
-0.046,-0.216,-0.203
-0.05,-0.2155,-0.2045
-0.0535,-0.218,-0.211
-0.053,-0.2175,-0.2165
-0.052,-0.216,-0.214
-0.054,-0.2165,-0.212
-0.0565,-0.217,-0.2115
-0.0525,-0.2165,-0.206
-0.052,-0.2155,-0.2035
-0.054,-0.216,-0.205
-0.053,-0.2165,-0.2045
-0.0505,-0.2165,-0.202
-0.0515,-0.215,-0.2
-0.0545,-0.2165,-0.1975
-0.0575,-0.2185,-0.198
-0.061,-0.219,-0.2035
-0.058,-0.219,-0.207
-0.0565,-0.2185,-0.2085
-0.0575,-0.218,-0.21
-0.055,-0.216,-0.2105
-0.054,-0.217,-0.212
-0.0525,-0.217,-0.209
-0.0515,-0.2175,-0.208
-0.0515,-0.2185,-0.21
-0.052,-0.2185,-0.2115
-0.052,-0.2195,-0.2135
-0.0545,-0.2185,-0.208
-0.0545,-0.217,-0.2055
-0.053,-0.2185,-0.205
-0.056,-0.2175,-0.204
-0.061,-0.218,-0.208
-0.0625,-0.2175,-0.21
-0.06,-0.215,-0.2065
-0.0605,-0.216,-0.202
-0.0575,-0.215,-0.2
-0.053,-0.2145,-0.2005
-0.051,-0.214,-0.2075
-0.048,-0.215,-0.21
-0.0485,-0.216,-0.2085
-0.0515,-0.2165,-0.209
-0.053,-0.216,-0.21
-0.056,-0.216,-0.211
-0.058,-0.2165,-0.21
-0.0565,-0.217,-0.2105
-0.053,-0.2185,-0.2105
-0.052,-0.2165,-0.207
-0.053,-0.217,-0.206
-0.0535,-0.2175,-0.207
-0.055,-0.2155,-0.2035
-0.057,-0.2165,-0.1995
-0.0585,-0.2165,-0.2
-0.0585,-0.216,-0.201
-0.0595,-0.2165,-0.1995
-0.0585,-0.216,-0.198
-0.0575,-0.217,-0.1995
-0.0555,-0.216,-0.203
-0.054,-0.212,-0.2065
-0.054,-0.215,-0.2065
-0.056,-0.2195,-0.205
-0.055,-0.2175,-0.204
-0.055,-0.2165,-0.2045
-0.0565,-0.2185,-0.206
-0.0525,-0.217,-0.206
-0.048,-0.2155,-0.207
-0.048,-0.216,-0.211
-0.0535,-0.217,-0.211
-0.054,-0.2165,-0.2095
-0.0505,-0.217,-0.211
-0.0495,-0.2175,-0.2105
-0.046,-0.216,-0.209
-0.045,-0.217,-0.21
-0.0495,-0.2185,-0.2095
-0.053,-0.2185,-0.2065
-0.055,-0.2195,-0.2045
-0.053,-0.217,-0.203
-0.0485,-0.2175,-0.204
-0.048,-0.2185,-0.2035
-0.0515,-0.2185,-0.2045
-0.0545,-0.22,-0.2085
-0.0545,-0.219,-0.2115
-0.054,-0.2185,-0.2115
-0.054,-0.218,-0.2105
-0.0545,-0.219,-0.2135
-0.053,-0.221,-0.213
-0.051,-0.2205,-0.213
-0.0515,-0.22,-0.21
-0.0545,-0.219,-0.2
-0.059,-0.22,-0.2005
-0.0585,-0.2205,-0.2065
-0.056,-0.2205,-0.205
-0.0575,-0.221,-0.204
-0.0575,-0.221,-0.203
-0.054,-0.2205,-0.2015
-0.0535,-0.22,-0.2025
-0.0515,-0.2195,-0.202
-0.0505,-0.2185,-0.201
-0.0485,-0.218,-0.203
-0.045,-0.2185,-0.205
-0.0455,-0.219,-0.202
-0.0435,-0.22,-0.1975
-0.042,-0.2205,-0.2005
-0.0455,-0.221,-0.205
-0.0465,-0.2215,-0.2115
-0.0475,-0.2205,-0.2155
-0.0495,-0.2205,-0.215
-0.0495,-0.2185,-0.214
-0.0505,-0.2195,-0.2125
-0.05,-0.2195,-0.212
-0.0505,-0.219,-0.208
-0.0505,-0.2205,-0.2075
-0.054,-0.22,-0.207
-0.055,-0.2205,-0.2045
-0.054,-0.2205,-0.204
-0.056,-0.221,-0.203
-0.0545,-0.2205,-0.2025
-0.058,-0.219,-0.204
-0.0625,-0.219,-0.2075
-0.0585,-0.2185,-0.2075
-0.0605,-0.218,-0.2075
-0.063,-0.218,-0.2095
-0.058,-0.217,-0.207
-0.0565,-0.2165,-0.205
-0.056,-0.2175,-0.2045
-0.0545,-0.2175,-0.204
-0.0535,-0.218,-0.204
-0.0535,-0.218,-0.204
-0.0535,-0.218,-0.2035
-0.054,-0.2165,-0.202
-0.0565,-0.2165,-0.202
-0.0575,-0.218,-0.202
-0.057,-0.218,-0.1995
-0.0575,-0.218,-0.201
-0.057,-0.2175,-0.2
-0.0575,-0.2165,-0.199
-0.0585,-0.215,-0.199
-0.057,-0.214,-0.199
-0.0545,-0.2145,-0.204
-0.058,-0.2155,-0.2045
-0.061,-0.214,-0.2035
-0.061,-0.2135,-0.203
-0.06,-0.213,-0.2025
-0.0575,-0.212,-0.204
-0.055,-0.2105,-0.206
-0.0535,-0.206,-0.205
-0.055,-0.209,-0.207
-0.0615,-0.2155,-0.211
-0.0615,-0.2145,-0.205
-0.062,-0.2145,-0.203
-0.065,-0.215,-0.2065
-0.061,-0.2145,-0.2035
-0.061,-0.217,-0.2
-0.0635,-0.218,-0.2005
-0.066,-0.2175,-0.202
-0.068,-0.2175,-0.199
-0.0675,-0.216,-0.2005
-0.0695,-0.2165,-0.2025
-0.067,-0.2165,-0.2015
-0.066,-0.216,-0.2025
-0.0645,-0.2165,-0.2
-0.066,-0.216,-0.2005
-0.0665,-0.2175,-0.201
-0.064,-0.218,-0.198
-0.067,-0.2175,-0.201
-0.0645,-0.216,-0.203
-0.064,-0.217,-0.2015
-0.066,-0.217,-0.2025
-0.0705,-0.2165,-0.2035
-0.07,-0.2175,-0.203
-0.071,-0.215,-0.204
-0.0745,-0.2155,-0.2045
-0.0705,-0.216,-0.2005
-0.0705,-0.2135,-0.1975
-0.071,-0.2135,-0.197
-0.069,-0.2125,-0.196
-0.067,-0.213,-0.194
-0.0675,-0.2125,-0.198
-0.0705,-0.2125,-0.2055
-0.071,-0.213,-0.2075
-0.072,-0.2115,-0.2025
-0.0705,-0.2095,-0.1995
-0.0695,-0.2085,-0.2015
-0.0715,-0.21,-0.202
-0.0675,-0.211,-0.2025
-0.069,-0.2115,-0.207
-0.0735,-0.2115,-0.208
-0.0725,-0.211,-0.206
-0.0695,-0.21,-0.205
-0.0685,-0.209,-0.2015
-0.0705,-0.209,-0.1985
-0.071,-0.209,-0.1995
-0.0715,-0.208,-0.2
-0.068,-0.207,-0.1975
-0.0685,-0.208,-0.1995
-0.0705,-0.2095,-0.2045
-0.07,-0.2085,-0.203
-0.0735,-0.21,-0.201
-0.07,-0.2105,-0.201
-0.069,-0.209,-0.1995
-0.069,-0.21,-0.1975
-0.067,-0.2095,-0.1975
-0.0675,-0.208,-0.203
-0.068,-0.2095,-0.2065
-0.066,-0.209,-0.2055
-0.064,-0.209,-0.2045
-0.0715,-0.212,-0.204
-0.075,-0.2125,-0.2025
-0.0745,-0.211,-0.1995
-0.075,-0.2095,-0.1975
-0.072,-0.209,-0.198
-0.071,-0.2095,-0.195
-0.0715,-0.21,-0.194
-0.069,-0.2105,-0.194
-0.0675,-0.2075,-0.1925
-0.0715,-0.207,-0.188
-0.0715,-0.208,-0.1825
-0.0705,-0.207,-0.182
-0.0705,-0.2065,-0.185
-0.067,-0.204,-0.1845
-0.0655,-0.2035,-0.181
-0.066,-0.204,-0.1805
-0.0665,-0.202,-0.177
-0.065,-0.1995,-0.171
-0.0635,-0.201,-0.1705
-0.06,-0.2,-0.1725
-0.0565,-0.2,-0.1705
-0.0585,-0.198,-0.165
-0.059,-0.196,-0.1565
-0.0585,-0.1955,-0.154
-0.0595,-0.1935,-0.155
-0.0605,-0.194,-0.152
-0.062,-0.195,-0.149
-0.062,-0.1955,-0.1475
-0.061,-0.1945,-0.143
-0.0605,-0.1935,-0.1385
-0.0635,-0.1945,-0.1395
-0.063,-0.1935,-0.139
-0.0585,-0.1935,-0.137
-0.0595,-0.193,-0.136
-0.0615,-0.19,-0.1355
-0.0595,-0.1855,-0.131
-0.0565,-0.1845,-0.1315
-0.061,-0.19,-0.14
-0.0605,-0.1895,-0.142
-0.0545,-0.185,-0.142
-0.051,-0.1845,-0.14
-0.0485,-0.1825,-0.136
-0.046,-0.182,-0.1365
-0.044,-0.1825,-0.139
-0.0405,-0.182,-0.1415
-0.038,-0.1815,-0.141
-0.04,-0.182,-0.1395
-0.04,-0.1825,-0.1365
-0.0405,-0.1825,-0.134
-0.043,-0.1805,-0.1265
-0.0445,-0.1795,-0.1155
-0.05,-0.18,-0.1095
-0.0475,-0.1795,-0.099
-0.0455,-0.181,-0.0945
-0.048,-0.1835,-0.093
-0.045,-0.1825,-0.086
-0.043,-0.181,-0.083
-0.0455,-0.1785,-0.076
-0.045,-0.1765,-0.073
-0.0415,-0.175,-0.0745
-0.034,-0.1725,-0.071
-0.0305,-0.169,-0.0705
-0.0255,-0.1655,-0.07
-0.0195,-0.162,-0.0685
-0.021,-0.1605,-0.0735
-0.0225,-0.1595,-0.084
-0.0225,-0.158,-0.0895
-0.0175,-0.1555,-0.09
-0.016,-0.151,-0.089
-0.016,-0.151,-0.0905
-0.017,-0.1525,-0.0945
-0.0195,-0.154,-0.101
-0.0195,-0.1575,-0.1125
-0.0195,-0.161,-0.119
-0.017,-0.161,-0.115
-0.016,-0.16,-0.1135
-0.017,-0.16,-0.1205
-0.019,-0.159,-0.1245
-0.0165,-0.1565,-0.1235
-0.0135,-0.1535,-0.1225
-0.013,-0.1525,-0.1245
-0.0115,-0.151,-0.1295
-0.0075,-0.1475,-0.133
-0.009,-0.1445,-0.133
-0.007,-0.141,-0.1355
-0.003,-0.1375,-0.134
0.0015,-0.1365,-0.134
0.008,-0.1345,-0.137
0.005,-0.1335,-0.139
-0.0005,-0.135,-0.143
-0.002,-0.1365,-0.1455
0.001,-0.136,-0.1495
0.0045,-0.137,-0.153
0.004,-0.1385,-0.1545
0.0,-0.1395,-0.1525
-0.0015,-0.14,-0.152
0.0015,-0.1385,-0.153
0.0,-0.1395,-0.15
-0.0065,-0.143,-0.1505
-0.0115,-0.145,-0.1515
-0.013,-0.145,-0.1515
-0.016,-0.146,-0.151
-0.02,-0.1455,-0.1425
-0.0205,-0.1425,-0.138
-0.02,-0.145,-0.1415
-0.019,-0.1495,-0.149
-0.023,-0.1525,-0.1575
-0.023,-0.1545,-0.156
-0.0205,-0.156,-0.154
-0.0275,-0.1605,-0.158
-0.0355,-0.165,-0.163
-0.0415,-0.17,-0.168
-0.0445,-0.173,-0.172
-0.046,-0.176,-0.177
-0.0475,-0.178,-0.1765
-0.05,-0.177,-0.1755
-0.056,-0.1805,-0.1785
-0.06,-0.1835,-0.1795
-0.0585,-0.185,-0.184
-0.0565,-0.1875,-0.1885
-0.058,-0.187,-0.19
-0.0625,-0.193,-0.1925
-0.0635,-0.1995,-0.1935
-0.066,-0.2015,-0.1975
-0.0695,-0.2035,-0.2025
-0.068,-0.208,-0.204
-0.0705,-0.21,-0.2025
-0.071,-0.2095,-0.2025
-0.073,-0.2115,-0.204
-0.071,-0.2125,-0.202
-0.072,-0.2155,-0.204
-0.074,-0.218,-0.209
-0.0715,-0.2195,-0.211
-0.072,-0.2205,-0.2115
-0.0685,-0.2195,-0.2105
-0.0675,-0.221,-0.211
-0.0665,-0.222,-0.2155
-0.0665,-0.223,-0.2175
-0.068,-0.2235,-0.218
-0.066,-0.223,-0.2225
-0.066,-0.223,-0.2245
-0.0665,-0.2225,-0.222
-0.064,-0.2225,-0.215
-0.0655,-0.221,-0.212
-0.07,-0.221,-0.2155
-0.073,-0.2225,-0.2165
-0.075,-0.2225,-0.214
-0.078,-0.2225,-0.2145
-0.077,-0.2205,-0.2155
-0.0755,-0.222,-0.2145
-0.0765,-0.2235,-0.2135
-0.0755,-0.222,-0.2085
-0.073,-0.221,-0.2115
-0.071,-0.2205,-0.2155
-0.0765,-0.221,-0.211
-0.078,-0.222,-0.2125
-0.079,-0.22,-0.216
-0.0815,-0.221,-0.2135
-0.079,-0.222,-0.2135
-0.079,-0.222,-0.22
-0.0765,-0.2225,-0.2225
-0.0765,-0.2215,-0.2175
-0.0785,-0.221,-0.216
-0.077,-0.2225,-0.2165
-0.081,-0.2255,-0.2215
-0.0845,-0.2285,-0.221
-0.0845,-0.231,-0.2195
-0.085,-0.232,-0.2215
-0.084,-0.232,-0.2275
-0.0815,-0.2325,-0.2385
-0.08,-0.234,-0.247
-0.0735,-0.2315,-0.255
-0.0645,-0.224,-0.2615
-0.061,-0.22,-0.2665
-0.0585,-0.218,-0.269
-0.062,-0.217,-0.267
-0.069,-0.216,-0.263
-0.0765,-0.2185,-0.249
-0.081,-0.224,-0.239
-0.076,-0.2085,-0.223
-0.067,-0.175,-0.2055
-0.057,-0.1395,-0.1935
-0.0465,-0.1025,-0.177
-0.027,-0.061,-0.165
-0.006,-0.0125,-0.148
0.013,0.0375,-0.1375
0.033,0.084,-0.1265
0.059,0.136,-0.111
0.092,0.2105,-0.1
0.1345,0.3125,-0.083
0.1845,0.435,-0.0665
0.218,0.555,-0.035
0.2415,0.67,0.018
0.263,0.801,0.0785
0.289,0.9485,0.144
0.3275,1.1065,0.2005
0.375,1.2725,0.2385
0.4175,1.4305,0.2755
0.4515,1.57,0.315
0.4835,1.71,0.347
0.5065,1.8325,0.391
0.5335,1.929,0.436
0.5555,2.0135,0.4675
0.572,2.0605,0.4855
0.582,2.07,0.4925
0.5825,2.0565,0.512
0.572,2.023,0.5395
0.543,1.943,0.5625
0.516,1.8405,0.583
0.4755,1.7315,0.612
0.4345,1.605,0.6335
0.3955,1.474,0.638
0.347,1.3405,0.648
0.2925,1.2035,0.653
0.2325,1.069,0.6515
0.1825,0.944,0.649
0.133,0.813,0.65
0.082,0.674,0.661
0.034,0.5385,0.6565
-0.0005,0.4245,0.6485
-0.024,0.323,0.638
-0.031,0.255,0.615
-0.0255,0.2175,0.586
-0.032,0.1735,0.5575
-0.0405,0.132,0.52
-0.0445,0.09,0.469
-0.051,0.045,0.423
-0.0595,0.0005,0.376
-0.062,-0.029,0.3345
-0.0725,-0.062,0.3165
-0.0845,-0.0995,0.306
-0.085,-0.122,0.2855
-0.084,-0.1385,0.2655
-0.0845,-0.1535,0.2435
-0.0875,-0.161,0.221
-0.088,-0.1695,0.198
-0.083,-0.1765,0.1665
-0.073,-0.1785,0.1335
-0.0725,-0.1915,0.101
-0.075,-0.1965,0.0745
-0.073,-0.1955,0.057
-0.072,-0.194,0.0445
-0.0695,-0.1845,0.0355
-0.073,-0.1805,0.0195
-0.0785,-0.1835,-0.004
-0.077,-0.183,-0.0185
-0.0715,-0.178,-0.029
-0.065,-0.17,-0.047
-0.063,-0.163,-0.0625
-0.0635,-0.16,-0.0675
-0.063,-0.159,-0.0715
-0.0625,-0.1595,-0.081
-0.0605,-0.1585,-0.088
-0.0635,-0.1605,-0.0955
-0.0685,-0.163,-0.106
-0.072,-0.165,-0.113
-0.075,-0.168,-0.118
-0.0745,-0.172,-0.1205
-0.069,-0.1735,-0.124
-0.067,-0.1755,-0.132
-0.0675,-0.178,-0.1405
-0.068,-0.178,-0.141
-0.066,-0.179,-0.14
-0.066,-0.1785,-0.141
-0.065,-0.178,-0.1395
-0.062,-0.1785,-0.1395
-0.063,-0.1805,-0.144
-0.064,-0.1815,-0.15
-0.063,-0.1805,-0.154
-0.062,-0.1815,-0.151
-0.0635,-0.1815,-0.1485
-0.064,-0.1815,-0.1495
-0.0615,-0.1835,-0.1525
-0.061,-0.184,-0.1535
-0.0625,-0.184,-0.153
-0.0625,-0.183,-0.1545
-0.065,-0.1835,-0.1565
-0.0655,-0.1845,-0.158
-0.062,-0.184,-0.157
-0.063,-0.185,-0.1565
-0.063,-0.185,-0.1575
-0.063,-0.1845,-0.1585
-0.0665,-0.185,-0.1575
-0.067,-0.1825,-0.155
-0.07,-0.182,-0.155
-0.0695,-0.183,-0.1575
-0.0645,-0.182,-0.1595
-0.0625,-0.1815,-0.158
-0.0605,-0.18,-0.1585
-0.0625,-0.1805,-0.1595
-0.0635,-0.18,-0.157
-0.063,-0.181,-0.1585
-0.0595,-0.181,-0.162
-0.057,-0.1795,-0.1625
-0.0575,-0.1805,-0.16
-0.0605,-0.179,-0.159
-0.0605,-0.179,-0.1615
-0.0575,-0.1765,-0.162
-0.0565,-0.1785,-0.16
-0.054,-0.18,-0.1615
-0.055,-0.179,-0.1665
-0.0575,-0.1795,-0.1655
-0.057,-0.177,-0.1615
-0.056,-0.176,-0.159
-0.055,-0.1775,-0.161
-0.055,-0.1765,-0.1625
-0.0545,-0.175,-0.16
-0.0535,-0.174,-0.1585
-0.051,-0.169,-0.154
-0.0515,-0.1705,-0.1545
-0.0545,-0.1755,-0.1565
-0.0525,-0.175,-0.16
-0.0515,-0.1745,-0.162
-0.051,-0.172,-0.162
-0.0505,-0.1725,-0.164
-0.05,-0.1715,-0.162
-0.048,-0.1695,-0.1615
-0.0475,-0.17,-0.1605
-0.0475,-0.169,-0.1595
-0.0435,-0.1685,-0.1565
-0.041,-0.167,-0.154
-0.045,-0.1655,-0.159
-0.048,-0.1655,-0.159
-0.047,-0.165,-0.153
-0.0445,-0.164,-0.152
-0.043,-0.1635,-0.154
-0.0405,-0.163,-0.1495
-0.0395,-0.162,-0.1485
-0.0415,-0.1615,-0.1495
-0.0475,-0.162,-0.1505
-0.0485,-0.1615,-0.156
-0.0465,-0.161,-0.1585
-0.0475,-0.1615,-0.155
-0.047,-0.1605,-0.1515
-0.0485,-0.1595,-0.151
-0.051,-0.158,-0.1485
-0.052,-0.1565,-0.147
-0.05,-0.156,-0.149
-0.048,-0.1565,-0.1475
-0.046,-0.1555,-0.1445
-0.045,-0.154,-0.144
-0.047,-0.1545,-0.148
-0.0475,-0.154,-0.1475
-0.048,-0.1545,-0.1445
-0.047,-0.155,-0.143
-0.0435,-0.1545,-0.141
-0.043,-0.1535,-0.1375
-0.0395,-0.153,-0.1375
-0.0345,-0.1515,-0.1355
-0.036,-0.15,-0.134
-0.038,-0.15,-0.135
-0.036,-0.149,-0.135
-0.0355,-0.148,-0.138
-0.034,-0.147,-0.137
-0.0335,-0.146,-0.1325
-0.0365,-0.1465,-0.134
-0.0345,-0.1465,-0.1355
-0.0335,-0.145,-0.131
-0.0325,-0.144,-0.1295
-0.032,-0.144,-0.1325
-0.032,-0.145,-0.132
-0.029,-0.1435,-0.1235
-0.028,-0.143,-0.1195
-0.026,-0.142,-0.1205
-0.03,-0.1405,-0.121
-0.033,-0.14,-0.122
-0.033,-0.1395,-0.1235
-0.031,-0.139,-0.123
-0.0315,-0.1365,-0.117
-0.036,-0.135,-0.1145
-0.0315,-0.133,-0.112
-0.0265,-0.131,-0.111
-0.0285,-0.1295,-0.1155
-0.0295,-0.1285,-0.118
-0.027,-0.128,-0.1165
-0.0285,-0.1245,-0.1155
-0.0265,-0.1205,-0.1135
-0.024,-0.119,-0.1085
-0.0255,-0.119,-0.1135
-0.024,-0.1175,-0.1165
-0.0255,-0.1145,-0.1165
-0.027,-0.114,-0.113
-0.0265,-0.1135,-0.1085
-0.027,-0.1105,-0.1075
-0.026,-0.108,-0.1025
-0.0245,-0.1065,-0.099
-0.023,-0.105,-0.0965
-0.023,-0.102,-0.0975
-0.0245,-0.102,-0.096
-0.0235,-0.099,-0.092
-0.0245,-0.096,-0.093
-0.026,-0.095,-0.092
-0.023,-0.0925,-0.088
-0.023,-0.091,-0.09
-0.0255,-0.09,-0.0925
-0.024,-0.088,-0.0925
-0.021,-0.0845,-0.0875
-0.0175,-0.081,-0.0795
-0.0155,-0.077,-0.0785
-0.0155,-0.074,-0.0805
-0.0145,-0.072,-0.0835
-0.0165,-0.0695,-0.081
-0.0175,-0.064,-0.074
-0.0135,-0.0575,-0.068
-0.0155,-0.06,-0.0695
-0.015,-0.061,-0.071
-0.0105,-0.0555,-0.0655
-0.0115,-0.052,-0.066
-0.012,-0.0465,-0.064
-0.014,-0.0415,-0.058
-0.0115,-0.038,-0.056
-0.0065,-0.0365,-0.0555
-0.001,-0.0335,-0.0525
0.001,-0.03,-0.0495
0.0005,-0.026,-0.049
0.0005,-0.022,-0.0495
0.0,-0.0185,-0.046
0.0035,-0.015,-0.0425
0.007,-0.012,-0.0425
0.0095,-0.0085,-0.042
0.0135,-0.004,-0.0375
0.015,0.002,-0.0345
0.014,0.0045,-0.03
0.017,0.009,-0.025
0.0175,0.0145,-0.025
0.0145,0.0175,-0.023
0.014,0.0215,-0.0175
0.017,0.027,-0.0105
0.021,0.0325,-0.008
0.0225,0.037,-0.0055
0.0205,0.041,-0.001
0.0235,0.0455,0.0025
0.0305,0.051,0.005
0.031,0.057,0.0035
0.031,0.0615,0.007
0.0345,0.0675,0.0135
0.038,0.0745,0.02
0.0365,0.0785,0.0225
0.037,0.0865,0.026
0.0405,0.0905,0.0345
0.042,0.0945,0.0355
0.0415,0.1015,0.039
0.038,0.107,0.0475
0.038,0.1125,0.052
0.045,0.117,0.054
0.0475,0.124,0.053
0.0485,0.1285,0.058
0.05,0.134,0.0655
0.05,0.141,0.068
0.054,0.1465,0.073
0.0555,0.153,0.0805
0.058,0.158,0.086
0.0605,0.1635,0.087
0.0605,0.168,0.089
0.0595,0.1715,0.0885
0.0605,0.176,0.092
0.0615,0.1805,0.0975
0.0595,0.185,0.0975
0.062,0.187,0.1005
0.0655,0.191,0.103
0.068,0.197,0.106
0.0685,0.202,0.11
0.066,0.2065,0.117
0.0655,0.209,0.1245
0.0665,0.213,0.1225
0.068,0.2175,0.122
0.0665,0.2205,0.1265
0.0655,0.2255,0.1295
0.067,0.23,0.133
0.066,0.2325,0.136
0.0665,0.2355,0.1375
0.067,0.2385,0.1385
0.0665,0.2425,0.14
0.07,0.2445,0.1435
0.068,0.247,0.145
0.068,0.2515,0.148
0.0695,0.254,0.1495
0.07,0.2555,0.1535
0.0705,0.257,0.1565
0.0745,0.2575,0.154
0.0765,0.259,0.153
0.0705,0.259,0.1545
0.0695,0.26,0.1545
0.072,0.26,0.1525
0.0745,0.261,0.155
0.0765,0.2615,0.1565
0.0745,0.26,0.1565
0.0705,0.2575,0.157
0.068,0.2555,0.1565
0.0655,0.2545,0.1585
0.068,0.252,0.155
0.0695,0.2485,0.151
0.069,0.2445,0.145
0.0685,0.2405,0.1405
0.065,0.2365,0.1405
0.0645,0.232,0.1365
0.066,0.2285,0.132
0.062,0.219,0.1255
0.058,0.2115,0.119
0.055,0.206,0.1165
0.053,0.1965,0.1095
0.052,0.191,0.106
0.0435,0.1815,0.102
0.0395,0.174,0.0995
0.0375,0.168,0.0945
0.0315,0.1585,0.086
0.03,0.15,0.0815
0.0275,0.141,0.0765
0.026,0.1345,0.073
0.0235,0.126,0.0685
0.0205,0.1185,0.0655
0.0195,0.112,0.0605
0.0135,0.1025,0.0515
0.011,0.095,0.044
0.016,0.088,0.038
0.0115,0.0805,0.0395
0.0085,0.073,0.0345
0.0095,0.068,0.0275
0.0065,0.0605,0.021
0.006,0.0475,0.013
0.0025,0.04,0.0085
-0.003,0.033,0.0025
-0.011,0.025,-0.003
-0.0145,0.0205,-0.0035
-0.014,0.0145,-0.003
-0.021,0.0075,-0.012
-0.0235,0.0015,-0.0145
-0.0225,-0.0045,-0.014
-0.022,-0.0105,-0.0155
-0.024,-0.015,-0.0175
-0.0285,-0.0205,-0.0255
-0.0295,-0.027,-0.0315
-0.027,-0.033,-0.0365
-0.0295,-0.039,-0.0375
-0.0305,-0.0445,-0.039
-0.033,-0.0485,-0.041
-0.0335,-0.0515,-0.045
-0.0325,-0.056,-0.049
-0.0335,-0.06,-0.053
-0.034,-0.063,-0.0595
-0.039,-0.066,-0.0615
-0.0405,-0.068,-0.062
-0.0415,-0.072,-0.061
-0.043,-0.0755,-0.0595
-0.0455,-0.078,-0.0595
-0.0465,-0.0805,-0.0645
-0.0445,-0.083,-0.07
-0.046,-0.084,-0.0695
-0.048,-0.085,-0.066
-0.049,-0.0875,-0.064
-0.0475,-0.0905,-0.0655
-0.0465,-0.092,-0.0665
-0.0475,-0.093,-0.071
-0.05,-0.096,-0.073
-0.05,-0.097,-0.0725
-0.053,-0.0965,-0.0735
-0.054,-0.099,-0.0745
-0.049,-0.0995,-0.0755
-0.0475,-0.103,-0.0785
-0.048,-0.104,-0.0815
-0.05,-0.1045,-0.0845
-0.0525,-0.1065,-0.0835
-0.057,-0.106,-0.078
-0.0545,-0.107,-0.08
-0.0505,-0.108,-0.0795
-0.0505,-0.1075,-0.083
-0.05,-0.1105,-0.082
-0.0505,-0.111,-0.083
-0.0485,-0.109,-0.0865
-0.05,-0.11,-0.078
-0.0515,-0.112,-0.0785
-0.0525,-0.111,-0.08
-0.0545,-0.1115,-0.0845
-0.052,-0.1115,-0.0895
-0.052,-0.113,-0.085
-0.051,-0.115,-0.0845
-0.051,-0.1155,-0.0835
-0.053,-0.115,-0.0825
-0.0515,-0.1155,-0.086
-0.0535,-0.116,-0.0885
-0.0525,-0.115,-0.0855
-0.05,-0.1145,-0.0815
-0.053,-0.114,-0.084
-0.054,-0.1145,-0.083
-0.054,-0.1155,-0.0845
-0.054,-0.115,-0.0875
-0.053,-0.1145,-0.087
-0.0565,-0.1145,-0.093
-0.0585,-0.1155,-0.09
-0.0595,-0.1155,-0.084
-0.06,-0.115,-0.081
-0.056,-0.114,-0.083
-0.0545,-0.113,-0.0875
-0.055,-0.1145,-0.087
-0.055,-0.113,-0.0895
-0.0565,-0.1115,-0.086
-0.059,-0.1125,-0.087
-0.0585,-0.1125,-0.0895
-0.0535,-0.114,-0.089
-0.0545,-0.1145,-0.089
-0.0575,-0.1145,-0.0885
-0.057,-0.115,-0.0885
-0.0575,-0.1155,-0.086
-0.0605,-0.115,-0.085
-0.0605,-0.117,-0.085
-0.0575,-0.1165,-0.087
-0.056,-0.1155,-0.088
-0.056,-0.117,-0.088
-0.057,-0.1165,-0.085
-0.058,-0.116,-0.084
-0.057,-0.117,-0.0865
-0.0575,-0.1175,-0.0855
-0.057,-0.118,-0.088
-0.0565,-0.1205,-0.09
-0.0575,-0.1225,-0.088
-0.0575,-0.1225,-0.089
-0.0595,-0.125,-0.091
-0.057,-0.125,-0.0895
-0.0555,-0.1235,-0.0855
-0.055,-0.123,-0.0835
-0.054,-0.1245,-0.09
-0.058,-0.1265,-0.0885
-0.0575,-0.126,-0.0835
-0.0575,-0.1265,-0.085
-0.06,-0.127,-0.0905
-0.0605,-0.1275,-0.0915
-0.063,-0.128,-0.087
-0.063,-0.1285,-0.0885
-0.062,-0.1275,-0.089
-0.064,-0.126,-0.084
-0.062,-0.126,-0.084
-0.0605,-0.1275,-0.0875
-0.0605,-0.1275,-0.0885
-0.059,-0.1255,-0.085
-0.0615,-0.125,-0.0875
-0.0615,-0.1245,-0.0905
-0.061,-0.1245,-0.0885
-0.0585,-0.1215,-0.0895
-0.0585,-0.121,-0.092
-0.0645,-0.126,-0.0945
-0.0635,-0.1265,-0.098
-0.0655,-0.1265,-0.0975
-0.0675,-0.1265,-0.093
-0.0655,-0.126,-0.091
-0.068,-0.127,-0.091
-0.0665,-0.1265,-0.0905
-0.067,-0.1275,-0.091
-0.0685,-0.126,-0.093
-0.0685,-0.1255,-0.088
-0.069,-0.126,-0.082
-0.0655,-0.1255,-0.0835
-0.065,-0.126,-0.083
-0.064,-0.126,-0.0845
-0.067,-0.1275,-0.087
-0.0685,-0.128,-0.089
-0.0655,-0.1285,-0.0915
-0.0665,-0.1295,-0.0925
-0.063,-0.128,-0.0885
-0.0605,-0.1275,-0.087
-0.059,-0.128,-0.0925
-0.0555,-0.127,-0.0945
-0.0565,-0.1255,-0.092
-0.056,-0.1255,-0.0915
-0.0565,-0.126,-0.0945
-0.0605,-0.1275,-0.096
-0.061,-0.128,-0.096
-0.06,-0.128,-0.096
-0.0625,-0.129,-0.098
-0.0645,-0.129,-0.098
-0.063,-0.1275,-0.0945
-0.0605,-0.127,-0.09
-0.058,-0.1275,-0.089
-0.058,-0.127,-0.0935
-0.059,-0.1275,-0.0955
-0.0575,-0.127,-0.0955
-0.0605,-0.1285,-0.098
-0.0605,-0.127,-0.0995
-0.06,-0.1255,-0.1
-0.063,-0.1275,-0.104
-0.0615,-0.129,-0.1015
-0.0605,-0.1305,-0.0985
-0.06,-0.1305,-0.0995
-0.062,-0.1305,-0.1
-0.0625,-0.1325,-0.1065
-0.06,-0.132,-0.1045
-0.0575,-0.131,-0.0975
-0.0535,-0.131,-0.097
-0.0555,-0.1295,-0.096
-0.0575,-0.13,-0.0955
-0.0575,-0.131,-0.096
-0.0595,-0.132,-0.096
-0.056,-0.1325,-0.095
-0.057,-0.1335,-0.096
-0.0595,-0.1345,-0.099
-0.0535,-0.1325,-0.099
-0.053,-0.1325,-0.0995
-0.052,-0.1315,-0.1005
-0.0455,-0.129,-0.096
-0.0435,-0.1305,-0.096
-0.0445,-0.1305,-0.1
-0.049,-0.1295,-0.1035
-0.055,-0.13,-0.1065
-0.0565,-0.1295,-0.1075
-0.059,-0.13,-0.107
-0.06,-0.13,-0.108
-0.055,-0.129,-0.1045
-0.051,-0.1275,-0.0975
-0.0495,-0.128,-0.101
-0.0505,-0.1285,-0.1055
-0.051,-0.129,-0.1035
-0.0495,-0.13,-0.1015
-0.0505,-0.13,-0.104
-0.0485,-0.1305,-0.112
-0.0465,-0.1325,-0.115
-0.0465,-0.1325,-0.1135
-0.045,-0.13,-0.111
-0.044,-0.13,-0.1085
-0.0415,-0.1325,-0.11
-0.0415,-0.134,-0.113
-0.0435,-0.1325,-0.117
-0.0425,-0.132,-0.119
-0.0415,-0.134,-0.1195
-0.0445,-0.1325,-0.1155
-0.044,-0.1305,-0.111
-0.04,-0.13,-0.108
-0.0445,-0.1315,-0.1095
-0.0475,-0.133,-0.112
-0.045,-0.132,-0.115
-0.044,-0.132,-0.117
-0.0445,-0.131,-0.1145
-0.044,-0.13,-0.1165
-0.042,-0.131,-0.1175
-0.04,-0.1315,-0.1195
-0.04,-0.1325,-0.1185
-0.042,-0.1315,-0.1205
-0.043,-0.132,-0.126
-0.0435,-0.1325,-0.125
-0.0485,-0.134,-0.123
-0.05,-0.136,-0.124
-0.042,-0.135,-0.128
-0.041,-0.1345,-0.1295
-0.043,-0.1355,-0.1285
-0.042,-0.135,-0.1245
-0.045,-0.134,-0.125
-0.0425,-0.1345,-0.1265
-0.0395,-0.1355,-0.1265
-0.043,-0.137,-0.13
-0.045,-0.137,-0.1275
-0.0445,-0.137,-0.1235
-0.0425,-0.1385,-0.1235
-0.04,-0.1385,-0.1225
-0.04,-0.14,-0.125
-0.0375,-0.1405,-0.129
-0.036,-0.1425,-0.128
-0.0375,-0.1425,-0.1255
-0.035,-0.1415,-0.1255
-0.035,-0.1415,-0.127
-0.0365,-0.1425,-0.1275
-0.0355,-0.1445,-0.126
-0.0335,-0.1435,-0.124
-0.03,-0.142,-0.1255
-0.0385,-0.1455,-0.1285
-0.046,-0.146,-0.1305
-0.042,-0.147,-0.131
-0.044,-0.149,-0.129
-0.0445,-0.1495,-0.131
-0.0395,-0.1505,-0.13
-0.0355,-0.1495,-0.125
-0.036,-0.1495,-0.125
-0.041,-0.151,-0.1245
-0.043,-0.1515,-0.1265
-0.0405,-0.151,-0.13
-0.039,-0.1535,-0.1325
-0.0405,-0.1525,-0.1325
-0.0415,-0.15,-0.129
-0.0375,-0.149,-0.1295
-0.0365,-0.148,-0.1305
-0.04,-0.149,-0.1325
-0.041,-0.1485,-0.133
-0.0435,-0.148,-0.1355
-0.042,-0.1475,-0.134
-0.0355,-0.1475,-0.1275
-0.0365,-0.1455,-0.1265
-0.045,-0.1485,-0.131
-0.0475,-0.1525,-0.134
-0.0475,-0.1525,-0.1275
-0.0455,-0.152,-0.129
-0.0465,-0.1505,-0.1285
-0.044,-0.1515,-0.1255
-0.0425,-0.152,-0.1295
-0.043,-0.1515,-0.129
-0.039,-0.1515,-0.1305
-0.039,-0.1515,-0.1325
-0.0405,-0.1505,-0.1335
-0.0395,-0.1515,-0.13
-0.0405,-0.1515,-0.1295
-0.043,-0.153,-0.136
-0.0385,-0.154,-0.1335
-0.0355,-0.1535,-0.133
-0.0365,-0.154,-0.134
-0.041,-0.1545,-0.134
-0.0435,-0.1555,-0.136
-0.046,-0.156,-0.135
-0.0505,-0.1575,-0.131
-0.0455,-0.157,-0.129
-0.046,-0.1575,-0.13
-0.0475,-0.1605,-0.1325
-0.043,-0.158,-0.1315
-0.044,-0.1575,-0.129
-0.0435,-0.1575,-0.1295
-0.045,-0.156,-0.1325
-0.0505,-0.159,-0.1375
-0.0485,-0.161,-0.1375
-0.046,-0.1605,-0.1345
-0.0485,-0.1605,-0.128
-0.046,-0.161,-0.1225
-0.044,-0.1605,-0.126
-0.046,-0.1595,-0.129
-0.0455,-0.16,-0.128
-0.0435,-0.1585,-0.128
-0.0435,-0.1585,-0.1275
-0.045,-0.1575,-0.13
-0.0445,-0.1575,-0.1315
-0.0455,-0.16,-0.1315
-0.045,-0.161,-0.132
-0.043,-0.1595,-0.13
-0.044,-0.16,-0.128
-0.0445,-0.1605,-0.1275
-0.0475,-0.1615,-0.1295
-0.0495,-0.161,-0.1255
-0.049,-0.16,-0.1245
-0.0475,-0.1625,-0.131
-0.048,-0.161,-0.1345
-0.044,-0.1595,-0.133
-0.043,-0.159,-0.132
-0.044,-0.1595,-0.1305
-0.0425,-0.161,-0.129
-0.045,-0.1605,-0.1285
-0.0515,-0.164,-0.133
-0.052,-0.1655,-0.138
-0.0475,-0.166,-0.1375
-0.046,-0.167,-0.1335
-0.0485,-0.1635,-0.13
-0.055,-0.165,-0.1295
-0.0535,-0.1665,-0.1295
-0.054,-0.1685,-0.1295
-0.0515,-0.1665,-0.1235
-0.0485,-0.1645,-0.1235
-0.0535,-0.166,-0.1255
-0.053,-0.164,-0.1205
-0.0515,-0.1645,-0.1225
-0.0515,-0.1635,-0.126
-0.05,-0.164,-0.127
-0.0505,-0.1635,-0.127
-0.0495,-0.1635,-0.1275
-0.0485,-0.1635,-0.128
-0.051,-0.1635,-0.1305
-0.0535,-0.1655,-0.132
-0.0515,-0.165,-0.1305
-0.0465,-0.1635,-0.1325
-0.049,-0.164,-0.1315
-0.0485,-0.166,-0.127
-0.0455,-0.1645,-0.1255
-0.045,-0.1645,-0.1265
-0.045,-0.166,-0.127
-0.045,-0.1655,-0.13
-0.048,-0.167,-0.1305
-0.05,-0.1675,-0.1305
-0.0485,-0.166,-0.1305
-0.0495,-0.1675,-0.1275
-0.0475,-0.167,-0.1255
-0.0445,-0.1645,-0.126
-0.043,-0.166,-0.1315
-0.0445,-0.167,-0.1355
-0.0465,-0.167,-0.1375
-0.047,-0.168,-0.1355
-0.045,-0.167,-0.1335
-0.044,-0.167,-0.1315
-0.0485,-0.167,-0.135
-0.05,-0.1675,-0.1385
-0.05,-0.1695,-0.1345
-0.049,-0.1675,-0.132
-0.049,-0.1665,-0.128
-0.049,-0.169,-0.1305
-0.0465,-0.169,-0.1335
-0.0455,-0.1695,-0.128
-0.043,-0.168,-0.124
-0.043,-0.169,-0.124
-0.046,-0.1695,-0.122
-0.049,-0.1695,-0.124
-0.052,-0.1735,-0.1305
-0.049,-0.172,-0.1345
-0.0435,-0.1725,-0.138
-0.0435,-0.1715,-0.138
-0.0435,-0.171,-0.138
-0.044,-0.172,-0.1375
-0.0465,-0.172,-0.1345
-0.0465,-0.173,-0.132
-0.039,-0.171,-0.134
-0.0375,-0.1715,-0.1335
-0.04,-0.1725,-0.133
-0.0425,-0.1725,-0.1355
-0.0445,-0.1725,-0.1335
-0.0425,-0.172,-0.132
-0.0425,-0.173,-0.132
-0.0415,-0.174,-0.1345
-0.04,-0.1715,-0.137
-0.04,-0.17,-0.1305
-0.043,-0.1715,-0.128
-0.0415,-0.1705,-0.1285
-0.0405,-0.17,-0.128
-0.04,-0.17,-0.1265
-0.039,-0.171,-0.1295
-0.0395,-0.1715,-0.133
-0.039,-0.1725,-0.1355
-0.0365,-0.17,-0.1345
-0.035,-0.17,-0.134
-0.0375,-0.173,-0.133
-0.0375,-0.1725,-0.13
-0.0365,-0.172,-0.1335
-0.035,-0.17,-0.1335
-0.035,-0.1715,-0.1335
-0.0375,-0.171,-0.1335
-0.0395,-0.17,-0.137
-0.0405,-0.171,-0.134
-0.04,-0.171,-0.126
-0.038,-0.173,-0.13
-0.0345,-0.172,-0.134
-0.036,-0.169,-0.1335
-0.043,-0.1715,-0.1355
-0.045,-0.1745,-0.133
-0.0455,-0.1735,-0.13
-0.0425,-0.174,-0.1355
-0.0405,-0.175,-0.1375
-0.0405,-0.1765,-0.132
-0.0375,-0.175,-0.127
-0.036,-0.1735,-0.129
-0.03,-0.1735,-0.1275
-0.031,-0.174,-0.1265
-0.0335,-0.176,-0.134
-0.038,-0.1765,-0.1395
-0.0425,-0.1755,-0.141
-0.04,-0.1765,-0.137
-0.0425,-0.1775,-0.131
-0.0435,-0.176,-0.127
-0.042,-0.1745,-0.124
-0.04,-0.1745,-0.123
-0.04,-0.174,-0.127
-0.042,-0.1745,-0.1315
-0.0445,-0.1745,-0.131
-0.047,-0.1735,-0.1265
-0.043,-0.1705,-0.1265
-0.0365,-0.1735,-0.1335
-0.033,-0.1745,-0.1365
-0.0355,-0.1715,-0.132
-0.0385,-0.173,-0.129
-0.041,-0.1725,-0.13
-0.044,-0.174,-0.1325
-0.042,-0.1735,-0.135
-0.0415,-0.173,-0.136
-0.044,-0.175,-0.1355
-0.043,-0.174,-0.137
-0.0455,-0.175,-0.137
-0.0475,-0.1745,-0.139
-0.047,-0.1745,-0.1365
-0.0455,-0.175,-0.1345
-0.0415,-0.1735,-0.135
-0.0435,-0.174,-0.1335
-0.05,-0.174,-0.1325
-0.0495,-0.174,-0.1305
-0.0495,-0.1745,-0.1305
-0.048,-0.175,-0.1325
-0.0445,-0.173,-0.135
-0.046,-0.1725,-0.1345
-0.048,-0.1745,-0.135
-0.0465,-0.1745,-0.1325
-0.0465,-0.174,-0.1315
-0.045,-0.173,-0.1295
-0.0425,-0.1735,-0.1295
-0.0415,-0.1735,-0.137
-0.0415,-0.171,-0.138
-0.0445,-0.171,-0.1365
-0.046,-0.1705,-0.135
-0.0455,-0.17,-0.138
-0.047,-0.172,-0.141
-0.0465,-0.1725,-0.141
-0.049,-0.1725,-0.137
-0.046,-0.1715,-0.13
-0.0435,-0.1685,-0.1295
-0.049,-0.1725,-0.1285
-0.047,-0.175,-0.1285
-0.046,-0.1745,-0.1335
-0.0455,-0.1765,-0.135
-0.0405,-0.1765,-0.1335
-0.045,-0.1765,-0.1345
-0.045,-0.175,-0.135
-0.0405,-0.175,-0.135
-0.0415,-0.178,-0.136
-0.0415,-0.177,-0.1365
-0.0425,-0.1775,-0.1355
-0.043,-0.178,-0.1345
-0.042,-0.1785,-0.1335
-0.0405,-0.177,-0.128
-0.0445,-0.1775,-0.133
-0.0455,-0.179,-0.139
-0.043,-0.178,-0.139
-0.0445,-0.18,-0.14
-0.045,-0.1785,-0.14
-0.0435,-0.175,-0.1355
-0.0405,-0.1725,-0.129
-0.04,-0.173,-0.13
-0.042,-0.174,-0.1345
-0.0425,-0.1735,-0.135
-0.0415,-0.174,-0.1315
-0.044,-0.173,-0.133
-0.0435,-0.1705,-0.1345
-0.043,-0.1715,-0.1345
-0.047,-0.1715,-0.136
-0.0495,-0.174,-0.1385
-0.047,-0.1765,-0.136
-0.0425,-0.1755,-0.1345
-0.043,-0.175,-0.137
-0.0465,-0.1755,-0.137
-0.046,-0.1785,-0.136
-0.043,-0.176,-0.1385
-0.0415,-0.174,-0.139
-0.0415,-0.1755,-0.1375
-0.0425,-0.1735,-0.133
-0.043,-0.173,-0.1345
-0.0425,-0.1715,-0.136
-0.039,-0.17,-0.1245
-0.0385,-0.172,-0.1245
-0.0395,-0.173,-0.128
-0.04,-0.173,-0.13
-0.0395,-0.1745,-0.135
-0.035,-0.1735,-0.134
-0.0335,-0.172,-0.135
-0.0345,-0.1705,-0.133
-0.0365,-0.17,-0.133
-0.0365,-0.1695,-0.1355
-0.0385,-0.171,-0.1315
-0.0445,-0.174,-0.1305
-0.0465,-0.1755,-0.134
-0.045,-0.1765,-0.133
-0.044,-0.174,-0.13
-0.0455,-0.1725,-0.1315
-0.0445,-0.171,-0.134
-0.0425,-0.172,-0.133
-0.04,-0.171,-0.1295
-0.0415,-0.1715,-0.1255
-0.042,-0.173,-0.1255
-0.04,-0.1735,-0.129
-0.0355,-0.174,-0.129
-0.0345,-0.1715,-0.133
-0.0395,-0.172,-0.135
-0.042,-0.1725,-0.1365
-0.045,-0.1735,-0.1385
-0.0415,-0.1715,-0.1335
-0.039,-0.171,-0.1335
-0.0375,-0.1735,-0.136
-0.029,-0.173,-0.133
-0.03,-0.1705,-0.1305
-0.036,-0.171,-0.132
-0.0355,-0.1715,-0.132
-0.038,-0.174,-0.1375
-0.0415,-0.1725,-0.142
-0.0435,-0.172,-0.139
-0.0405,-0.172,-0.1365
-0.039,-0.17,-0.134
-0.047,-0.173,-0.1325
-0.046,-0.1725,-0.1315
-0.04,-0.1725,-0.129
-0.043,-0.1735,-0.1325
-0.0475,-0.174,-0.136
-0.045,-0.175,-0.1355
-0.0445,-0.174,-0.1375
-0.04,-0.171,-0.135
-0.038,-0.1725,-0.1345
-0.0385,-0.175,-0.1355
-0.035,-0.1725,-0.135
-0.036,-0.1735,-0.1345
-0.0345,-0.174,-0.132
-0.0385,-0.173,-0.129
-0.0435,-0.1745,-0.127
-0.04,-0.172,-0.128
-0.041,-0.172,-0.125
-0.0385,-0.174,-0.1225
-0.037,-0.1735,-0.128
-0.0415,-0.173,-0.131
-0.044,-0.1735,-0.1285
-0.047,-0.1745,-0.126
-0.0445,-0.1735,-0.125
-0.0415,-0.172,-0.129
-0.0385,-0.172,-0.134
-0.0375,-0.169,-0.131
-0.037,-0.167,-0.1315
-0.0345,-0.171,-0.132
-0.0395,-0.174,-0.13
-0.04,-0.173,-0.1275
-0.041,-0.1735,-0.13
-0.044,-0.1735,-0.137
-0.0415,-0.175,-0.134
-0.041,-0.1745,-0.13
-0.039,-0.174,-0.127
-0.0355,-0.1745,-0.1235
-0.0395,-0.1725,-0.122
-0.0435,-0.1725,-0.1215
-0.038,-0.171,-0.1205
-0.036,-0.169,-0.112
-0.0345,-0.17,-0.106
-0.0365,-0.1685,-0.102
-0.038,-0.167,-0.1055
-0.034,-0.1665,-0.1075
-0.038,-0.1645,-0.1055
-0.039,-0.1645,-0.107
-0.0355,-0.164,-0.101
-0.0335,-0.1625,-0.0985
-0.0355,-0.161,-0.1
-0.0375,-0.16,-0.1
-0.036,-0.1615,-0.0935
-0.0335,-0.162,-0.0815
-0.033,-0.1635,-0.079
-0.037,-0.165,-0.0785
-0.04,-0.165,-0.078
-0.0415,-0.165,-0.0785
-0.039,-0.1645,-0.0735
-0.038,-0.165,-0.071
-0.04,-0.1665,-0.0745
-0.041,-0.1655,-0.074
-0.0395,-0.1655,-0.0715
-0.038,-0.164,-0.072
-0.0395,-0.1625,-0.0755
-0.035,-0.161,-0.08
-0.0295,-0.159,-0.0855
-0.0305,-0.158,-0.09
-0.0275,-0.1555,-0.0845
-0.0255,-0.155,-0.0775
-0.024,-0.1545,-0.0775
-0.0205,-0.1555,-0.078
-0.0195,-0.155,-0.08
-0.02,-0.153,-0.08
-0.0215,-0.153,-0.077
-0.0245,-0.153,-0.0755
-0.0285,-0.155,-0.0715
-0.0275,-0.1545,-0.063
-0.0245,-0.155,-0.0565
-0.0285,-0.155,-0.046
-0.0315,-0.1545,-0.034
-0.027,-0.155,-0.027
-0.0265,-0.1535,-0.021
-0.025,-0.152,-0.017
-0.0205,-0.1495,-0.015
-0.0175,-0.1465,-0.0125
-0.015,-0.145,-0.007
-0.0155,-0.1445,-0.007
-0.0125,-0.142,-0.0105
-0.004,-0.1375,-0.0085
0.003,-0.135,-0.0065
0.006,-0.1345,-0.0075
0.01,-0.133,-0.01
0.011,-0.1315,-0.0165
0.0135,-0.128,-0.0235
0.0155,-0.1255,-0.028
0.012,-0.126,-0.03
0.0105,-0.127,-0.035
0.0125,-0.1285,-0.0375
0.011,-0.1325,-0.043
0.01,-0.138,-0.0485
0.012,-0.1405,-0.0425
0.0095,-0.1405,-0.0405
0.0055,-0.141,-0.048
0.0045,-0.1405,-0.054
0.007,-0.1385,-0.0515
0.011,-0.1355,-0.048
0.0115,-0.132,-0.0545
0.011,-0.1285,-0.06
0.016,-0.126,-0.0585
0.0165,-0.1225,-0.058
0.0165,-0.118,-0.063
0.018,-0.117,-0.0685
0.0205,-0.1145,-0.074
0.0215,-0.1145,-0.0735
0.0205,-0.1145,-0.072
0.02,-0.1145,-0.0745
0.0215,-0.1135,-0.0795
0.0215,-0.1125,-0.088
0.0215,-0.1145,-0.0875
0.024,-0.1135,-0.0875
0.0215,-0.1145,-0.0885
0.0195,-0.113,-0.0845
0.0195,-0.113,-0.0865
0.0195,-0.114,-0.0925
0.0155,-0.1155,-0.0885
0.0135,-0.116,-0.0825
0.0085,-0.1165,-0.081
0.004,-0.1225,-0.0815
0.007,-0.12,-0.0815
0.006,-0.117,-0.08
0.004,-0.1225,-0.082
0.0045,-0.1255,-0.0855
0.006,-0.127,-0.09
0.0035,-0.13,-0.0915
0.0005,-0.134,-0.0935
-0.003,-0.137,-0.098
-0.01,-0.141,-0.1
-0.0135,-0.143,-0.0965
-0.015,-0.1455,-0.099
-0.021,-0.151,-0.1085
-0.031,-0.1525,-0.1115
-0.034,-0.1525,-0.1125
-0.032,-0.1555,-0.111
-0.029,-0.1575,-0.112
-0.0265,-0.1595,-0.1175
-0.0275,-0.163,-0.1225
-0.032,-0.1655,-0.125
-0.034,-0.1685,-0.133
-0.035,-0.17,-0.1375
-0.037,-0.175,-0.136
-0.035,-0.1795,-0.141
-0.036,-0.1815,-0.144
-0.037,-0.1835,-0.1465
-0.04,-0.1835,-0.1495
-0.044,-0.186,-0.1545
-0.0415,-0.1885,-0.154
-0.0395,-0.1895,-0.15
-0.044,-0.1935,-0.1525
-0.043,-0.1915,-0.154
-0.041,-0.193,-0.156
-0.0385,-0.1935,-0.158
-0.036,-0.192,-0.16
-0.043,-0.199,-0.16
-0.0415,-0.1995,-0.1565
-0.0385,-0.1985,-0.1615
-0.0405,-0.2005,-0.1605
-0.04,-0.1995,-0.158
-0.035,-0.1945,-0.1605
-0.0355,-0.197,-0.1615
-0.041,-0.2,-0.163
-0.0405,-0.1975,-0.165
-0.0365,-0.1965,-0.1665
-0.036,-0.1965,-0.161
-0.0375,-0.1985,-0.1555
-0.0385,-0.1995,-0.147
-0.0375,-0.2,-0.1465
-0.0355,-0.1985,-0.148
-0.0405,-0.1985,-0.147
-0.042,-0.1985,-0.149
-0.0395,-0.1975,-0.1505
-0.041,-0.1965,-0.1495
-0.0435,-0.1935,-0.149
-0.045,-0.1935,-0.1495
-0.0455,-0.1955,-0.1495
-0.049,-0.198,-0.1525
-0.0475,-0.198,-0.151
-0.0435,-0.198,-0.1515
-0.048,-0.1985,-0.156
-0.0485,-0.197,-0.155
-0.0455,-0.2,-0.158
-0.0485,-0.201,-0.163
-0.0455,-0.2015,-0.165
-0.0435,-0.203,-0.173
-0.047,-0.202,-0.1775
-0.047,-0.2025,-0.176
-0.0445,-0.2035,-0.181
-0.039,-0.2035,-0.196
-0.033,-0.1985,-0.207
-0.03,-0.193,-0.209
-0.026,-0.187,-0.212
-0.0185,-0.179,-0.2135
-0.0205,-0.1775,-0.2095
-0.0305,-0.1775,-0.203
-0.0385,-0.1805,-0.1905
-0.0385,-0.18,-0.1795
-0.035,-0.16,-0.169
-0.0255,-0.122,-0.149
-0.008,-0.079,-0.1365
0.0085,-0.0385,-0.1315
0.03,0.009,-0.115
0.054,0.058,-0.101
0.0735,0.1055,-0.096
0.088,0.151,-0.086
0.1085,0.2075,-0.069
0.141,0.2945,-0.054
0.185,0.41,-0.0355
0.2305,0.541,-0.0045
0.26,0.663,0.0395
0.2815,0.79,0.103
0.309,0.9395,0.165
0.341,1.101,0.2325
0.3875,1.271,0.284
0.4355,1.4485,0.318
0.4755,1.6115,0.3565
0.515,1.7515,0.3815
0.544,1.893,0.419
0.566,2.0075,0.4645
0.5875,2.095,0.5065
0.609,2.17,0.5275
0.618,2.196,0.5285
0.6225,2.1905,0.547
0.62,2.166,0.568
0.591,2.1035,0.5885
0.5605,2.005,0.61
0.5245,1.887,0.6435
0.486,1.757,0.6825
0.443,1.616,0.6935
0.3885,1.4775,0.7035
0.3215,1.325,0.7245
0.2575,1.178,0.727
0.215,1.0565,0.7285
0.1645,0.92,0.7365
0.1195,0.7765,0.739
0.071,0.632,0.741
0.0225,0.4965,0.732
-0.0115,0.38,0.7165
-0.0285,0.287,0.692
-0.0225,0.2405,0.6535
-0.027,0.1995,0.6245
-0.034,0.1545,0.5945
-0.0385,0.114,0.5575
-0.039,0.0685,0.5025
-0.0415,0.02,0.4425
-0.047,-0.019,0.4125
-0.0575,-0.056,0.392
-0.0675,-0.097,0.3725
-0.075,-0.129,0.3555
-0.0825,-0.1565,0.3375
-0.0765,-0.1715,0.314
-0.0745,-0.175,0.2815
-0.075,-0.177,0.257
-0.0765,-0.183,0.235
-0.072,-0.1855,0.2005
-0.064,-0.193,0.1615
-0.057,-0.1965,0.13
-0.052,-0.1915,0.104
-0.054,-0.191,0.089
-0.0545,-0.1835,0.083
-0.054,-0.1755,0.0735
-0.05,-0.17,0.0555
-0.0465,-0.1695,0.031
-0.046,-0.168,0.0095
-0.042,-0.1605,0.001
-0.0365,-0.154,-0.0085
-0.0355,-0.1485,-0.019
-0.0325,-0.144,-0.027
-0.03,-0.1415,-0.042
-0.0335,-0.1405,-0.049
-0.0325,-0.1395,-0.053
-0.03,-0.1395,-0.0615
-0.0335,-0.142,-0.0675
-0.0365,-0.1445,-0.066
-0.039,-0.147,-0.069
-0.042,-0.1525,-0.0775
-0.0445,-0.154,-0.0855
-0.0445,-0.155,-0.0905
-0.037,-0.154,-0.088
-0.033,-0.1525,-0.0895
-0.0335,-0.1555,-0.093
-0.031,-0.157,-0.098
-0.0325,-0.1565,-0.1035
-0.0385,-0.1595,-0.107
-0.0375,-0.1625,-0.109
-0.0335,-0.1625,-0.1065
-0.0335,-0.163,-0.105
-0.0335,-0.162,-0.1095
-0.0335,-0.1625,-0.1125
-0.03,-0.1645,-0.1125
-0.0305,-0.165,-0.1135
-0.031,-0.162,-0.113
-0.0245,-0.156,-0.113
-0.0255,-0.155,-0.111
-0.0305,-0.162,-0.112
-0.031,-0.1645,-0.114
-0.028,-0.162,-0.1175
-0.025,-0.1615,-0.1215
-0.024,-0.1605,-0.1245
-0.0225,-0.1605,-0.128
-0.0245,-0.159,-0.124
-0.025,-0.158,-0.122
-0.025,-0.16,-0.1215
-0.025,-0.1565,-0.1265
-0.024,-0.1555,-0.1275
-0.0265,-0.1555,-0.123
-0.0235,-0.1525,-0.122
-0.0255,-0.1535,-0.1225
-0.027,-0.1545,-0.1215
-0.0185,-0.1535,-0.1205
-0.0195,-0.1535,-0.1195
-0.026,-0.154,-0.122
-0.0245,-0.1535,-0.1275
-0.0255,-0.1535,-0.1245
-0.025,-0.153,-0.118
-0.0175,-0.1515,-0.1165
-0.0155,-0.152,-0.121
-0.015,-0.151,-0.122
-0.0165,-0.1505,-0.121
-0.02,-0.1515,-0.122
-0.022,-0.153,-0.127
-0.019,-0.1545,-0.1325
-0.021,-0.1545,-0.1355
-0.0205,-0.1545,-0.135
-0.0145,-0.151,-0.13
-0.0165,-0.1485,-0.1275
-0.015,-0.1475,-0.121
-0.0155,-0.147,-0.1185
-0.017,-0.1485,-0.1175
-0.0165,-0.15,-0.118
-0.0245,-0.1515,-0.124
-0.024,-0.152,-0.125
-0.0205,-0.151,-0.1215
-0.022,-0.1495,-0.1205
-0.022,-0.1495,-0.1215
-0.022,-0.149,-0.1265
-0.019,-0.1465,-0.1315
-0.021,-0.1455,-0.1245
-0.0195,-0.1455,-0.12
-0.0145,-0.144,-0.1195
-0.0175,-0.1435,-0.115
-0.017,-0.145,-0.115
-0.0175,-0.146,-0.1165
-0.015,-0.1455,-0.115
-0.016,-0.1455,-0.117
-0.023,-0.147,-0.1155
-0.022,-0.147,-0.112
-0.018,-0.1435,-0.114
-0.0165,-0.1415,-0.1125
-0.0165,-0.1435,-0.11
-0.0185,-0.1445,-0.109
-0.0185,-0.142,-0.111
-0.0135,-0.14,-0.1055
-0.0145,-0.1395,-0.101
-0.014,-0.1385,-0.1055
-0.0145,-0.138,-0.112
-0.02,-0.1375,-0.1175
-0.02,-0.1385,-0.116
-0.018,-0.138,-0.114
-0.016,-0.134,-0.116
-0.0155,-0.132,-0.1155
-0.0105,-0.13,-0.1115
-0.006,-0.1275,-0.1115
-0.007,-0.127,-0.1135
-0.0115,-0.1275,-0.11
-0.0155,-0.127,-0.105
-0.0115,-0.123,-0.103
-0.009,-0.1245,-0.1035
-0.0065,-0.124,-0.102
-0.0045,-0.1225,-0.1005
-0.008,-0.1265,-0.0995
-0.01,-0.126,-0.099
-0.013,-0.125,-0.104
-0.0115,-0.1235,-0.1025
-0.008,-0.121,-0.099
-0.003,-0.12,-0.101
0.0,-0.119,-0.1025
-0.007,-0.1215,-0.102
-0.011,-0.1215,-0.1
-0.007,-0.118,-0.1025
-0.0055,-0.1185,-0.1015
-0.006,-0.118,-0.1
-0.002,-0.115,-0.1035
0.0015,-0.113,-0.1
0.004,-0.111,-0.1005
0.0065,-0.108,-0.097
0.008,-0.1045,-0.0905
0.01,-0.103,-0.09
0.0085,-0.1025,-0.0915
0.0055,-0.101,-0.0965
0.0045,-0.0995,-0.0905
0.0055,-0.096,-0.087
0.0035,-0.0955,-0.089
0.0,-0.096,-0.089
0.004,-0.0925,-0.0875
0.0065,-0.0915,-0.0855
0.006,-0.0905,-0.088
0.0115,-0.0885,-0.086
0.0115,-0.0845,-0.0845
0.012,-0.081,-0.083
0.011,-0.0795,-0.0855
0.0075,-0.0805,-0.0865
0.012,-0.0795,-0.085
0.015,-0.0765,-0.092
0.0145,-0.075,-0.09
0.0165,-0.0715,-0.0835
0.018,-0.07,-0.08
0.015,-0.069,-0.073
0.014,-0.0665,-0.076
0.015,-0.065,-0.075
0.0165,-0.0625,-0.07
0.018,-0.059,-0.0695
0.019,-0.0555,-0.064
0.0185,-0.052,-0.0575
0.02,-0.0495,-0.0585
0.0245,-0.0475,-0.0625
0.025,-0.0465,-0.0655
0.0245,-0.041,-0.0675
0.026,-0.0395,-0.0625
0.029,-0.037,-0.0615
0.027,-0.0325,-0.0595
0.024,-0.0325,-0.055
0.03,-0.029,-0.0605
0.032,-0.0235,-0.0625
0.0295,-0.0205,-0.055
0.0305,-0.018,-0.046
0.0285,-0.0145,-0.038
0.032,-0.01,-0.0365
0.039,-0.0035,-0.0355
0.042,-0.002,-0.0385
0.0405,-0.0035,-0.04
0.0415,0.002,-0.0315
0.0425,0.0085,-0.0275
0.042,0.013,-0.0275
0.042,0.015,-0.023
0.04,0.0185,-0.02
0.0425,0.0235,-0.019
0.045,0.0275,-0.019
0.043,0.0305,-0.0215
0.0445,0.035,-0.012
0.0505,0.0395,-0.004
0.054,0.0415,-0.002
0.0525,0.044,-0.001
0.0525,0.0485,-0.004
0.0505,0.0545,-0.0025
0.0515,0.063,0.002
0.059,0.071,0.0115
0.063,0.077,0.0175
0.0675,0.08,0.018
0.067,0.0825,0.02
0.066,0.088,0.0235
0.071,0.094,0.0225
0.072,0.099,0.028
0.0735,0.103,0.037
0.072,0.1095,0.0405
0.073,0.1135,0.0445
0.079,0.1195,0.0455
0.0835,0.127,0.0475
0.0855,0.133,0.054
0.0825,0.1375,0.0575
0.0825,0.1445,0.059
0.0875,0.15,0.063
0.0935,0.1555,0.065
0.0955,0.162,0.068
0.093,0.165,0.0675
0.0925,0.171,0.0755
0.0935,0.177,0.0885
0.0905,0.1825,0.0895
0.0945,0.19,0.09
0.1,0.1935,0.095
0.101,0.1975,0.101
0.1025,0.205,0.1065
0.1,0.211,0.1125
0.1045,0.216,0.1145
0.1065,0.2215,0.118
0.1085,0.2265,0.116
0.1105,0.23,0.1095
0.11,0.2345,0.1145
0.1115,0.241,0.1195
0.1105,0.246,0.125
0.1135,0.247,0.132
0.116,0.2505,0.132
0.116,0.2545,0.137
0.1175,0.257,0.137
0.1155,0.261,0.1375
0.1165,0.2635,0.1465
0.116,0.266,0.1485
0.1125,0.2675,0.1525
0.112,0.2695,0.1565
0.114,0.272,0.1625
0.114,0.271,0.1685
0.115,0.2725,0.168
0.1155,0.2755,0.1685
0.113,0.278,0.1655
0.114,0.2795,0.1705
0.1185,0.281,0.179
0.1185,0.2835,0.1735
0.1175,0.284,0.1685
0.1205,0.287,0.1745
0.1205,0.2905,0.1795
0.119,0.293,0.1795
0.12,0.294,0.1785
0.1165,0.2935,0.1715
0.116,0.2915,0.1705
0.1215,0.2895,0.1715
0.119,0.2895,0.172
0.114,0.288,0.1765
0.1125,0.2875,0.17
0.111,0.2855,0.166
0.108,0.2805,0.1655
0.106,0.2765,0.162
0.109,0.271,0.16
0.1085,0.2695,0.157
0.1065,0.263,0.1525
0.106,0.2565,0.1475
0.1035,0.25,0.1455
0.103,0.241,0.1405
0.099,0.2355,0.1325
0.099,0.2295,0.1285
0.1,0.2225,0.128
0.0945,0.214,0.12
0.0935,0.2065,0.1125
0.0885,0.197,0.1065
0.086,0.19,0.098
0.0865,0.183,0.0915
0.08,0.173,0.09
0.075,0.166,0.0875
0.0725,0.158,0.083
0.0715,0.1505,0.0765
0.068,0.1415,0.0675
0.0645,0.131,0.0615
0.0605,0.124,0.057
0.055,0.116,0.0575
0.0525,0.1065,0.054
0.0545,0.1005,0.047
0.0525,0.0925,0.036
0.0465,0.084,0.0265
0.045,0.0785,0.024
0.042,0.071,0.0175
0.042,0.065,0.016
0.0405,0.0575,0.0145
0.038,0.0495,0.007
0.0375,0.0415,0.001
0.032,0.0325,-0.007
0.031,0.03,-0.0095
0.0255,0.024,-0.0105
0.025,0.0155,-0.0135
0.0265,0.0095,-0.012
0.022,0.0035,-0.0175
0.021,0.0,-0.0185
0.0205,-0.004,-0.017
0.019,-0.012,-0.025
0.02,-0.0185,-0.0285
0.019,-0.02,-0.027
0.0105,-0.027,-0.03
0.0055,-0.0345,-0.039
0.0105,-0.0385,-0.0435
0.0115,-0.043,-0.046
0.0125,-0.044,-0.05
0.009,-0.0485,-0.048
0.0045,-0.0525,-0.0455
0.0035,-0.054,-0.048
0.005,-0.0555,-0.053
0.0065,-0.0565,-0.058
0.002,-0.061,-0.0575
-0.003,-0.0655,-0.0605
-0.006,-0.0685,-0.0625
-0.006,-0.0705,-0.058
-0.0065,-0.072,-0.056
-0.002,-0.074,-0.0545
0.0,-0.077,-0.058
0.0005,-0.0775,-0.0625
0.001,-0.076,-0.064
0.0005,-0.077,-0.0645
-0.001,-0.0785,-0.0635
-0.006,-0.0815,-0.07
-0.0045,-0.083,-0.0775
-0.003,-0.082,-0.074
-0.0045,-0.083,-0.073
-0.0105,-0.085,-0.0715
-0.012,-0.0845,-0.0705
-0.0075,-0.0835,-0.071
-0.008,-0.0835,-0.072
-0.0075,-0.0865,-0.0735
-0.0035,-0.0865,-0.0695
-0.003,-0.0875,-0.067
-0.005,-0.0895,-0.0605
-0.0075,-0.0895,-0.0625
-0.0095,-0.0885,-0.07
-0.0115,-0.089,-0.0665
-0.012,-0.0905,-0.071
-0.009,-0.0885,-0.0705
-0.0115,-0.091,-0.0645
-0.0175,-0.0935,-0.066
-0.0185,-0.092,-0.067
-0.0145,-0.091,-0.07
-0.0135,-0.0915,-0.071
-0.014,-0.0925,-0.0695
-0.012,-0.095,-0.072
-0.015,-0.095,-0.076
-0.013,-0.0945,-0.0795
-0.009,-0.094,-0.079
-0.011,-0.0955,-0.0785
-0.009,-0.096,-0.0795
-0.0095,-0.097,-0.0795
-0.01,-0.097,-0.0775
-0.015,-0.0995,-0.0685
-0.0185,-0.1025,-0.0685
-0.0185,-0.1015,-0.0735
-0.0195,-0.101,-0.0765
-0.0165,-0.0995,-0.078
-0.0185,-0.101,-0.0765
-0.019,-0.1005,-0.073
-0.021,-0.099,-0.071
-0.0195,-0.0995,-0.073
-0.0165,-0.0985,-0.074
-0.014,-0.098,-0.0755
-0.0125,-0.098,-0.0745
-0.015,-0.099,-0.0755
-0.0145,-0.0985,-0.078
-0.017,-0.098,-0.077
-0.018,-0.0995,-0.074
-0.0165,-0.1,-0.074
-0.0165,-0.101,-0.0765
-0.0165,-0.102,-0.074
-0.0165,-0.101,-0.075
-0.017,-0.099,-0.0765
-0.0205,-0.101,-0.08
-0.02,-0.103,-0.0765
-0.0195,-0.1025,-0.073
-0.019,-0.1035,-0.075
-0.0215,-0.1005,-0.075
-0.027,-0.1005,-0.0795
-0.023,-0.102,-0.08
-0.0195,-0.1,-0.0785
-0.0155,-0.099,-0.0795
-0.013,-0.1,-0.08
-0.0115,-0.101,-0.0795
-0.0145,-0.101,-0.079
-0.0175,-0.1025,-0.084
-0.0205,-0.1035,-0.088
-0.0225,-0.105,-0.088
-0.019,-0.104,-0.0895
-0.0145,-0.1015,-0.0905
-0.0135,-0.1025,-0.09
-0.0155,-0.1025,-0.0895
-0.0145,-0.1045,-0.0845
-0.018,-0.1065,-0.083
-0.0205,-0.105,-0.087
-0.0165,-0.106,-0.083
-0.0125,-0.1045,-0.0805
-0.0165,-0.104,-0.079
-0.0195,-0.1065,-0.0775
-0.022,-0.107,-0.0795
-0.018,-0.1065,-0.0765
-0.014,-0.1055,-0.082
-0.0125,-0.105,-0.082
-0.0115,-0.1115,-0.078
-0.0195,-0.115,-0.085
-0.02,-0.113,-0.0845
-0.019,-0.113,-0.086
-0.0195,-0.111,-0.0865
-0.018,-0.1105,-0.088
-0.019,-0.1095,-0.091
-0.02,-0.1085,-0.085
-0.018,-0.109,-0.086
-0.0165,-0.1075,-0.0875
-0.0145,-0.1075,-0.085
-0.0155,-0.108,-0.0865
-0.0165,-0.1065,-0.0855
-0.017,-0.1055,-0.0835
-0.019,-0.105,-0.088
-0.018,-0.103,-0.089
-0.0195,-0.1025,-0.088
-0.019,-0.1025,-0.0875
-0.0155,-0.101,-0.087
-0.017,-0.102,-0.0895
-0.0195,-0.104,-0.0915
-0.019,-0.105,-0.0935
-0.018,-0.105,-0.093
-0.0175,-0.1055,-0.093
-0.0155,-0.107,-0.095
-0.014,-0.108,-0.0945
-0.009,-0.1075,-0.094
-0.008,-0.108,-0.092
-0.011,-0.107,-0.09
-0.0125,-0.1075,-0.089
-0.016,-0.1095,-0.0865
-0.016,-0.11,-0.088
-0.0165,-0.111,-0.0885
-0.0165,-0.111,-0.0845
-0.016,-0.1095,-0.0825
-0.016,-0.1105,-0.0825
-0.014,-0.112,-0.0815
-0.0115,-0.1095,-0.08
-0.013,-0.1095,-0.0855
-0.018,-0.1125,-0.0895
-0.019,-0.1125,-0.089
-0.0205,-0.1125,-0.086
-0.0185,-0.1105,-0.086
-0.0195,-0.1095,-0.0885
-0.0185,-0.1095,-0.085
-0.0145,-0.1095,-0.089
-0.014,-0.111,-0.0885
-0.0105,-0.112,-0.089
-0.0105,-0.111,-0.093
-0.011,-0.1105,-0.0905
-0.009,-0.11,-0.0905
-0.011,-0.111,-0.0855
-0.014,-0.1105,-0.086
-0.0115,-0.1105,-0.089
-0.011,-0.1115,-0.09
-0.0135,-0.1115,-0.0905
-0.0155,-0.1125,-0.0865
-0.0185,-0.114,-0.087
-0.016,-0.1145,-0.086
-0.0105,-0.1135,-0.087
-0.008,-0.115,-0.0905
-0.0065,-0.117,-0.0925
-0.008,-0.1165,-0.094
-0.009,-0.1175,-0.0925
-0.011,-0.1175,-0.092
-0.0145,-0.119,-0.094
-0.0115,-0.1195,-0.0925
-0.011,-0.1175,-0.095
-0.012,-0.1195,-0.096
-0.008,-0.1195,-0.0885
-0.0055,-0.119,-0.0845
-0.009,-0.119,-0.0915
-0.0095,-0.1195,-0.0945
-0.0095,-0.1205,-0.092
-0.014,-0.1195,-0.09
-0.0135,-0.119,-0.088
-0.014,-0.1175,-0.088
-0.016,-0.1215,-0.0925
-0.0155,-0.125,-0.0935
-0.0135,-0.125,-0.095
-0.0125,-0.1245,-0.0985
-0.0125,-0.126,-0.096
-0.0105,-0.1245,-0.0965
-0.0085,-0.1235,-0.0995
-0.0065,-0.1245,-0.1025
-0.008,-0.125,-0.103
-0.0095,-0.128,-0.1075
-0.012,-0.128,-0.108
-0.013,-0.1265,-0.101
-0.014,-0.1255,-0.1005
-0.0185,-0.126,-0.099
-0.015,-0.1265,-0.0985
-0.0155,-0.1275,-0.1015
-0.0155,-0.129,-0.102
-0.0105,-0.126,-0.1005
-0.0095,-0.125,-0.0965
-0.01,-0.1245,-0.0935
-0.0105,-0.124,-0.0925
-0.015,-0.1255,-0.096
-0.0155,-0.1275,-0.1015
-0.016,-0.1275,-0.101
-0.0155,-0.126,-0.0985
-0.012,-0.124,-0.0975
-0.015,-0.124,-0.1
-0.014,-0.1255,-0.1025
-0.014,-0.127,-0.1045
-0.0135,-0.1275,-0.1035
-0.0125,-0.127,-0.101
-0.018,-0.1285,-0.1025
-0.0195,-0.13,-0.1025
-0.016,-0.1305,-0.102
-0.018,-0.131,-0.1025
-0.0185,-0.1325,-0.104
-0.0185,-0.1335,-0.102
-0.023,-0.135,-0.1005
-0.0225,-0.135,-0.104
-0.022,-0.134,-0.102
-0.02,-0.136,-0.101
-0.0195,-0.1365,-0.105
-0.019,-0.136,-0.106
-0.019,-0.1375,-0.1065
-0.0185,-0.1375,-0.105
-0.0165,-0.137,-0.104
-0.016,-0.1385,-0.1035
-0.0155,-0.1385,-0.1035
-0.018,-0.14,-0.1095
-0.016,-0.1405,-0.11
-0.0125,-0.141,-0.107
-0.014,-0.141,-0.1015
-0.018,-0.1415,-0.101
-0.0215,-0.142,-0.1085
-0.02,-0.141,-0.109
-0.02,-0.144,-0.11
-0.0175,-0.145,-0.1075
-0.0165,-0.1465,-0.104
-0.0175,-0.1465,-0.1055
-0.014,-0.1435,-0.1045
-0.016,-0.145,-0.1045
-0.0165,-0.1465,-0.105
-0.016,-0.1475,-0.103
-0.0165,-0.146,-0.0995
-0.014,-0.1465,-0.1005
-0.0175,-0.1495,-0.1045
-0.0215,-0.1485,-0.106
-0.0195,-0.1495,-0.1075
-0.0225,-0.152,-0.111
-0.023,-0.151,-0.113
-0.023,-0.15,-0.109
-0.024,-0.1495,-0.1065
-0.0235,-0.1485,-0.104
-0.021,-0.148,-0.104
-0.0215,-0.149,-0.1075
-0.025,-0.151,-0.11
-0.0235,-0.15,-0.111
-0.022,-0.1495,-0.109
-0.0205,-0.1495,-0.1055
-0.0245,-0.149,-0.106
-0.03,-0.1495,-0.1085
-0.029,-0.1515,-0.1085
-0.0265,-0.1525,-0.1125
-0.024,-0.1515,-0.113
-0.0235,-0.15,-0.113
-0.0195,-0.148,-0.111
-0.0215,-0.152,-0.109
-0.027,-0.1575,-0.111
-0.0275,-0.157,-0.108
-0.026,-0.157,-0.1065
-0.0215,-0.1555,-0.107
-0.0235,-0.156,-0.107
-0.026,-0.157,-0.108
-0.028,-0.157,-0.11
-0.0265,-0.158,-0.1075
-0.0265,-0.158,-0.107
-0.031,-0.16,-0.112
-0.032,-0.1595,-0.11
-0.0345,-0.158,-0.11
-0.0375,-0.159,-0.111
-0.0375,-0.1605,-0.1065
-0.0335,-0.1605,-0.103
-0.03,-0.1585,-0.1045
-0.0305,-0.158,-0.112
-0.031,-0.1575,-0.114
-0.0315,-0.1575,-0.1095
-0.0305,-0.1585,-0.1055
-0.031,-0.158,-0.1075
-0.033,-0.158,-0.11
-0.033,-0.1585,-0.1135
-0.031,-0.159,-0.1135
-0.03,-0.158,-0.1085
-0.0305,-0.1585,-0.1095
-0.03,-0.159,-0.106
-0.0285,-0.1595,-0.1035
-0.0305,-0.1605,-0.1045
-0.032,-0.159,-0.1045
-0.0315,-0.159,-0.1055
-0.0355,-0.159,-0.1035
-0.0385,-0.1595,-0.1085
-0.035,-0.1595,-0.1085
-0.031,-0.158,-0.106
-0.0305,-0.1585,-0.1095
-0.0305,-0.159,-0.1125
-0.0345,-0.158,-0.113
-0.037,-0.159,-0.112
-0.035,-0.16,-0.1095
-0.0365,-0.1585,-0.109
-0.0335,-0.1575,-0.114
-0.0295,-0.159,-0.1135
-0.0325,-0.1585,-0.1095
-0.033,-0.1595,-0.108
-0.0335,-0.1615,-0.105
-0.0355,-0.1605,-0.106
-0.0345,-0.1615,-0.109
-0.0335,-0.1615,-0.1115
-0.0335,-0.162,-0.11
-0.0315,-0.161,-0.106
-0.0295,-0.16,-0.1005
-0.033,-0.1625,-0.0995
-0.039,-0.164,-0.1085
-0.0395,-0.164,-0.1125
-0.0365,-0.163,-0.1115
-0.036,-0.1625,-0.11
-0.0385,-0.164,-0.1085
-0.036,-0.163,-0.107
-0.034,-0.1635,-0.106
-0.037,-0.164,-0.1075
-0.039,-0.1655,-0.1095
-0.038,-0.167,-0.109
-0.0365,-0.165,-0.1095
-0.0345,-0.1645,-0.109
-0.0375,-0.164,-0.1055
-0.041,-0.1655,-0.109
-0.0375,-0.1675,-0.1145
-0.039,-0.1665,-0.1155
-0.036,-0.1665,-0.117
-0.037,-0.1675,-0.1145
-0.04,-0.168,-0.111
-0.0345,-0.1665,-0.112
-0.036,-0.1685,-0.1115
-0.0375,-0.1705,-0.111
-0.0335,-0.169,-0.112
-0.0275,-0.1705,-0.1105
-0.029,-0.169,-0.11
-0.0295,-0.168,-0.106
-0.032,-0.1695,-0.1055
-0.0335,-0.1695,-0.109
-0.029,-0.1695,-0.1075
-0.0265,-0.1705,-0.107
-0.0265,-0.1705,-0.104
-0.0305,-0.1705,-0.103
-0.033,-0.173,-0.108
-0.0375,-0.1725,-0.1105
-0.037,-0.1735,-0.1105
-0.036,-0.1725,-0.1075
-0.036,-0.172,-0.1045
-0.0335,-0.174,-0.1035
-0.034,-0.17,-0.1015
-0.036,-0.1665,-0.1005
-0.0365,-0.171,-0.1025
-0.037,-0.174,-0.1045
-0.0365,-0.1725,-0.107
-0.0315,-0.171,-0.108
-0.031,-0.1705,-0.1085
-0.0335,-0.17,-0.111
-0.0355,-0.169,-0.113
-0.037,-0.1695,-0.112
-0.033,-0.1705,-0.108
-0.037,-0.169,-0.109
-0.043,-0.169,-0.1105
-0.043,-0.1685,-0.108
-0.0435,-0.167,-0.107
-0.0445,-0.1685,-0.1075
-0.043,-0.17,-0.1065
-0.042,-0.1695,-0.1065
-0.0425,-0.1685,-0.106
-0.0445,-0.169,-0.1045
-0.0475,-0.169,-0.104
-0.046,-0.169,-0.101
-0.0415,-0.1695,-0.1015
-0.0425,-0.171,-0.1045
-0.046,-0.173,-0.1035
-0.046,-0.172,-0.1055
-0.0465,-0.1725,-0.1085
-0.047,-0.1715,-0.1055
-0.0465,-0.171,-0.108
-0.0445,-0.1725,-0.1065
-0.0445,-0.1715,-0.105
-0.0465,-0.1725,-0.1085
-0.0485,-0.174,-0.1075
-0.0515,-0.174,-0.1065
-0.054,-0.1745,-0.105
-0.0535,-0.1755,-0.105
-0.056,-0.1745,-0.1055
-0.054,-0.176,-0.1025
-0.0495,-0.1765,-0.1025
-0.0505,-0.176,-0.1045
-0.049,-0.175,-0.103
-0.049,-0.174,-0.1025
-0.05,-0.174,-0.0995
-0.0445,-0.173,-0.099
-0.0405,-0.1725,-0.102
-0.0415,-0.1715,-0.1035
-0.0425,-0.172,-0.105
-0.041,-0.1725,-0.1045
-0.039,-0.1705,-0.1015
-0.039,-0.1715,-0.1015
-0.04,-0.1735,-0.1065
-0.0415,-0.174,-0.1085
-0.0425,-0.175,-0.107
-0.0435,-0.1745,-0.105
-0.042,-0.1745,-0.1
-0.0395,-0.1745,-0.099
-0.041,-0.175,-0.102
-0.039,-0.177,-0.104
-0.036,-0.1765,-0.1065
-0.0375,-0.1765,-0.1065
-0.041,-0.1775,-0.104
-0.04,-0.1755,-0.1025
-0.042,-0.175,-0.1005
-0.046,-0.1765,-0.106
-0.044,-0.176,-0.11
-0.045,-0.176,-0.1085
-0.043,-0.178,-0.1075
-0.0385,-0.1775,-0.1075
-0.038,-0.1765,-0.1075
-0.0385,-0.1765,-0.106
-0.0365,-0.176,-0.109
-0.0365,-0.1765,-0.1125
-0.0375,-0.1775,-0.1105
-0.036,-0.176,-0.1065
-0.035,-0.1745,-0.1015
-0.034,-0.1745,-0.1005
-0.034,-0.1745,-0.103
-0.036,-0.175,-0.1015
-0.0355,-0.175,-0.0985
-0.0355,-0.1745,-0.102
-0.0375,-0.176,-0.1035
-0.0365,-0.176,-0.0995
-0.034,-0.175,-0.1005
-0.0305,-0.174,-0.099
-0.0295,-0.176,-0.1035
-0.034,-0.178,-0.1085
-0.035,-0.1775,-0.1045
-0.033,-0.1785,-0.1035
-0.0345,-0.1775,-0.1015
-0.031,-0.1775,-0.0995
-0.0275,-0.1735,-0.0975
-0.0335,-0.1775,-0.1015
-0.037,-0.1805,-0.105
-0.0365,-0.1765,-0.0995
-0.0375,-0.1785,-0.0995
-0.0355,-0.177,-0.098
-0.034,-0.1765,-0.0965
-0.0385,-0.176,-0.0975
-0.0405,-0.1755,-0.094
-0.04,-0.176,-0.097
-0.0405,-0.176,-0.0955
-0.0435,-0.178,-0.092
-0.048,-0.175,-0.0955
-0.045,-0.1735,-0.09
-0.039,-0.174,-0.089
-0.034,-0.1725,-0.0905
-0.035,-0.1725,-0.091
-0.04,-0.1725,-0.0965
-0.0405,-0.1735,-0.099
-0.0395,-0.173,-0.0975
-0.0395,-0.1735,-0.0975
-0.04,-0.175,-0.1005
-0.0375,-0.1745,-0.0995
-0.0365,-0.173,-0.1
-0.041,-0.172,-0.098
-0.0435,-0.174,-0.095
-0.0415,-0.173,-0.097
-0.042,-0.174,-0.098
-0.0415,-0.175,-0.1
-0.0385,-0.174,-0.096
-0.0375,-0.1745,-0.0895
-0.038,-0.1745,-0.0935
-0.0405,-0.1755,-0.0965
-0.0435,-0.177,-0.098
-0.044,-0.1775,-0.105
-0.0445,-0.1775,-0.1075
-0.045,-0.1775,-0.105
-0.0425,-0.176,-0.102
-0.0405,-0.1765,-0.098
-0.04,-0.177,-0.0975
-0.0425,-0.177,-0.1005
-0.041,-0.1775,-0.101
-0.041,-0.176,-0.103
-0.0435,-0.176,-0.101
-0.044,-0.175,-0.096
-0.047,-0.176,-0.097
-0.047,-0.1755,-0.0995
-0.0465,-0.175,-0.0965
-0.045,-0.176,-0.098
-0.043,-0.175,-0.1
-0.0435,-0.1765,-0.0975
-0.043,-0.176,-0.0975
-0.044,-0.177,-0.098
-0.043,-0.176,-0.096
-0.0365,-0.1755,-0.096
-0.0355,-0.176,-0.101
-0.037,-0.175,-0.1
-0.038,-0.175,-0.099
-0.039,-0.1745,-0.101
-0.0375,-0.175,-0.1015
-0.0365,-0.175,-0.1015
-0.034,-0.176,-0.103
-0.0335,-0.1765,-0.1035
-0.036,-0.1765,-0.0985
-0.038,-0.1775,-0.0955
-0.041,-0.177,-0.095
-0.0385,-0.1775,-0.0945
-0.037,-0.1785,-0.091
-0.04,-0.178,-0.0925
-0.0405,-0.177,-0.093
-0.0405,-0.1775,-0.092
-0.0395,-0.1775,-0.0905
-0.0365,-0.175,-0.0835
-0.037,-0.1745,-0.0875
-0.034,-0.17,-0.0875
-0.03,-0.168,-0.0805
-0.0355,-0.1735,-0.084
-0.0395,-0.173,-0.0855
-0.0385,-0.172,-0.084
-0.0345,-0.172,-0.0815
-0.03,-0.1705,-0.078
-0.028,-0.17,-0.0765
-0.027,-0.168,-0.075
-0.03,-0.1685,-0.0695
-0.0295,-0.1665,-0.061
-0.03,-0.1645,-0.059
-0.031,-0.1635,-0.0595
-0.0295,-0.1645,-0.054
-0.0305,-0.165,-0.0535
-0.029,-0.1635,-0.0515
-0.0275,-0.164,-0.051
-0.0275,-0.165,-0.0485
-0.029,-0.165,-0.0415
-0.0305,-0.1645,-0.045
-0.03,-0.166,-0.0435
-0.0295,-0.166,-0.0395
-0.03,-0.165,-0.0405
-0.029,-0.163,-0.039
-0.0255,-0.163,-0.041
-0.023,-0.161,-0.041
-0.0215,-0.1595,-0.045
-0.02,-0.159,-0.051
-0.0195,-0.155,-0.051
-0.0215,-0.1575,-0.047
-0.021,-0.1575,-0.041
-0.0195,-0.1555,-0.043
-0.023,-0.155,-0.047
-0.0235,-0.153,-0.0475
-0.0215,-0.1555,-0.042
-0.0185,-0.1525,-0.037
-0.016,-0.151,-0.035
-0.019,-0.1515,-0.03
-0.0225,-0.1515,-0.023
-0.022,-0.152,-0.014
-0.023,-0.153,-0.0105
-0.0215,-0.154,-0.0065
-0.0225,-0.154,0.002
-0.0215,-0.1545,0.012
-0.0175,-0.152,0.019
-0.0165,-0.1505,0.024
-0.014,-0.151,0.0235
-0.0095,-0.149,0.0235
-0.009,-0.146,0.0255
-0.009,-0.144,0.0225
-0.0045,-0.1405,0.025
0.001,-0.137,0.0255
0.0065,-0.1355,0.016
0.0075,-0.1335,0.0155
0.011,-0.1305,0.012
0.0135,-0.13,0.006
0.011,-0.129,0.0045
0.0125,-0.13,0.0
0.0105,-0.132,-0.0025
0.0055,-0.1335,-0.0085
0.004,-0.1385,-0.018
0.002,-0.141,-0.0235
0.0005,-0.1415,-0.0215
0.0035,-0.1415,-0.0205
0.0035,-0.142,-0.021
0.0055,-0.1405,-0.0215
0.0105,-0.1355,-0.024
0.0135,-0.131,-0.023
0.0185,-0.1285,-0.0285
0.0185,-0.127,-0.0355
0.017,-0.126,-0.0355
0.0145,-0.121,-0.0355
0.013,-0.115,-0.0345
0.014,-0.1125,-0.0335
0.015,-0.1125,-0.037
0.018,-0.1145,-0.039
0.021,-0.114,-0.0385
0.0215,-0.1155,-0.0425
0.0175,-0.118,-0.0485
0.0165,-0.119,-0.053
0.017,-0.117,-0.055
0.016,-0.1165,-0.054
0.016,-0.117,-0.053
0.017,-0.1155,-0.0565
0.017,-0.1165,-0.06
0.018,-0.114,-0.054
0.0165,-0.113,-0.0475
0.0085,-0.1195,-0.0495
0.007,-0.124,-0.0505
0.007,-0.122,-0.0435
0.005,-0.121,-0.0415
0.003,-0.123,-0.0445
0.0,-0.1255,-0.0475
-0.0035,-0.13,-0.052
-0.007,-0.133,-0.0575
-0.0025,-0.1345,-0.06
-0.0055,-0.136,-0.059
-0.01,-0.1395,-0.0615
-0.014,-0.1445,-0.069
-0.019,-0.15,-0.0745
-0.0205,-0.153,-0.074
-0.0255,-0.1535,-0.073
-0.0275,-0.155,-0.075
-0.0315,-0.1565,-0.0805
-0.0355,-0.159,-0.083
-0.0345,-0.1605,-0.0845
-0.0305,-0.1635,-0.0875
-0.0345,-0.1665,-0.092
-0.0405,-0.1695,-0.098
-0.04,-0.173,-0.098
-0.0445,-0.1755,-0.1005
-0.046,-0.1765,-0.105
-0.0445,-0.18,-0.108
-0.044,-0.1825,-0.109
-0.04,-0.184,-0.107
-0.043,-0.185,-0.111
-0.047,-0.1885,-0.116
-0.047,-0.1925,-0.1175
-0.046,-0.1945,-0.1165
-0.0425,-0.195,-0.1155
-0.044,-0.1955,-0.119
-0.046,-0.198,-0.122
-0.0485,-0.199,-0.124
-0.048,-0.2,-0.1225
-0.046,-0.202,-0.124
-0.0495,-0.203,-0.1235
-0.049,-0.2035,-0.122
-0.049,-0.2035,-0.1255
-0.0475,-0.203,-0.124
-0.049,-0.2035,-0.121
-0.0505,-0.2035,-0.116
-0.05,-0.2025,-0.115
-0.0475,-0.2035,-0.1165
-0.0465,-0.205,-0.1125
-0.0475,-0.203,-0.1075
-0.043,-0.201,-0.107
-0.0455,-0.2015,-0.1085
-0.0485,-0.202,-0.11
-0.0535,-0.2035,-0.116
-0.055,-0.203,-0.1185
-0.048,-0.2015,-0.117
-0.048,-0.202,-0.1165
-0.0485,-0.2005,-0.1155
-0.0505,-0.2005,-0.116
-0.054,-0.2,-0.117
-0.054,-0.201,-0.119
-0.054,-0.202,-0.122
-0.0525,-0.2025,-0.1205
-0.0535,-0.2025,-0.119
-0.054,-0.2015,-0.117
-0.0545,-0.2025,-0.118
-0.057,-0.205,-0.125
-0.0565,-0.206,-0.1295
-0.0545,-0.208,-0.128
-0.0535,-0.2085,-0.1295
-0.055,-0.2085,-0.1365
-0.054,-0.2105,-0.1435
-0.057,-0.2125,-0.1575
-0.0525,-0.21,-0.167
-0.04,-0.2015,-0.175
-0.037,-0.1995,-0.18
-0.0365,-0.195,-0.178
-0.039,-0.194,-0.1765
-0.0425,-0.195,-0.1675
-0.0465,-0.195,-0.154
-0.0495,-0.199,-0.144
-0.0485,-0.184,-0.1335
-0.036,-0.1515,-0.119
-0.022,-0.1095,-0.104
-0.0105,-0.0695,-0.0905
0.011,-0.0265,-0.0715
0.0285,0.0255,-0.053
0.047,0.074,-0.0435
0.062,0.1225,-0.0305
0.081,0.1745,-0.016
0.1145,0.249,-0.0025
0.1565,0.3595,0.016
0.2025,0.4835,0.0345
0.2365,0.6065,0.0695
0.2595,0.7275,0.128
0.285,0.8665,0.191
0.3185,1.023,0.255
0.351,1.1845,0.3145
0.4015,1.3595,0.3535
0.447,1.529,0.3915
0.4765,1.6735,0.425
0.508,1.816,0.456
0.5265,1.9425,0.4995
0.5475,2.042,0.541
0.572,2.1335,0.5845
0.583,2.1815,0.601
0.5925,2.192,0.6085
0.598,2.1835,0.631
0.584,2.145,0.6615
0.557,2.066,0.689
0.5245,1.9585,0.7065
0.4845,1.8405,0.7345
0.441,1.7025,0.7545
0.3965,1.5645,0.7645
0.3495,1.4235,0.7775
0.2875,1.274,0.784
0.2315,1.1385,0.7825
0.1855,1.003,0.7835
0.1375,0.86,0.7865
0.091,0.716,0.7945
0.0395,0.574,0.794
0.003,0.453,0.7825
-0.024,0.346,0.7715
-0.03,0.277,0.7395
-0.0255,0.2385,0.7025
-0.037,0.1935,0.677
-0.043,0.1505,0.642
-0.047,0.11,0.5915
-0.0535,0.0625,0.538
-0.0605,0.0165,0.493
-0.0675,-0.018,0.4535
-0.0725,-0.052,0.427
-0.0805,-0.0875,0.416
-0.085,-0.117,0.399
-0.0825,-0.1345,0.378
-0.08,-0.1485,0.353
-0.08,-0.1525,0.3225
-0.083,-0.1625,0.304
-0.0825,-0.1695,0.273
-0.0765,-0.171,0.2335
-0.0755,-0.1825,0.2055
-0.0745,-0.186,0.1775
-0.0725,-0.187,0.16
-0.071,-0.184,0.1465
-0.0715,-0.1775,0.134
-0.07,-0.1715,0.1225
-0.067,-0.1725,0.1055
-0.065,-0.174,0.085
-0.06,-0.1695,0.074
-0.06,-0.163,0.063
-0.0575,-0.154,0.0465
-0.0545,-0.1495,0.038
-0.0545,-0.148,0.032
-0.056,-0.1475,0.0245
-0.0555,-0.1465,0.0145
-0.0545,-0.1455,0.0055
-0.0545,-0.147,-0.003
-0.055,-0.151,-0.009
-0.0565,-0.154,-0.011
-0.055,-0.156,-0.016
-0.055,-0.157,-0.02
-0.055,-0.1595,-0.023
-0.057,-0.1625,-0.027
-0.055,-0.1645,-0.0295
-0.054,-0.1655,-0.028
-0.053,-0.163,-0.026
-0.05,-0.163,-0.0285
-0.05,-0.1635,-0.0305
-0.053,-0.165,-0.035
-0.054,-0.1675,-0.041
-0.05,-0.1665,-0.041
-0.0505,-0.167,-0.0415
-0.0495,-0.1685,-0.0445
-0.0475,-0.168,-0.0435
-0.046,-0.168,-0.0455
-0.044,-0.169,-0.051
-0.0435,-0.171,-0.0535
-0.0425,-0.17,-0.0555
-0.0405,-0.1685,-0.0545
-0.0405,-0.1685,-0.0575
-0.0405,-0.1695,-0.0605
-0.04,-0.1715,-0.0615
-0.0415,-0.173,-0.0625
-0.045,-0.1715,-0.062
-0.0465,-0.1715,-0.061
-0.047,-0.1715,-0.0585
-0.0455,-0.17,-0.061
-0.0425,-0.168,-0.0585
-0.043,-0.1685,-0.0575
-0.0435,-0.1695,-0.062
-0.0415,-0.1675,-0.063
-0.04,-0.1675,-0.06
-0.0405,-0.165,-0.057
-0.04,-0.162,-0.0535
-0.0405,-0.1675,-0.059
-0.0405,-0.171,-0.065
-0.0365,-0.1675,-0.065
-0.033,-0.167,-0.063
-0.035,-0.167,-0.059
-0.036,-0.1655,-0.06
-0.0335,-0.1675,-0.0605
-0.034,-0.168,-0.0625
-0.037,-0.1685,-0.0655
-0.0365,-0.1685,-0.0635
-0.0315,-0.167,-0.058
-0.0335,-0.1655,-0.0565
-0.0375,-0.165,-0.0565
-0.0355,-0.166,-0.0575
-0.0375,-0.166,-0.055
-0.034,-0.1645,-0.054
-0.0315,-0.162,-0.056
-0.0385,-0.1615,-0.056
-0.0425,-0.1635,-0.0585
-0.041,-0.1635,-0.053
-0.0375,-0.161,-0.0525
-0.037,-0.162,-0.0555
-0.04,-0.1605,-0.056
-0.0375,-0.159,-0.059
-0.035,-0.1585,-0.0605
-0.0385,-0.156,-0.06
-0.039,-0.156,-0.0555
-0.034,-0.1555,-0.054
-0.0335,-0.1535,-0.0555
-0.0335,-0.1545,-0.058
-0.036,-0.156,-0.055
-0.0375,-0.1555,-0.0495
-0.037,-0.155,-0.0505
-0.039,-0.1565,-0.053
-0.039,-0.157,-0.051
-0.0395,-0.1555,-0.048
-0.04,-0.1555,-0.0485
-0.037,-0.1535,-0.045
-0.032,-0.152,-0.043
-0.029,-0.1505,-0.0435
-0.0285,-0.1505,-0.043
-0.029,-0.149,-0.0475
-0.0315,-0.1505,-0.049
-0.0315,-0.151,-0.047
-0.028,-0.148,-0.047
-0.026,-0.1465,-0.0475
-0.027,-0.1465,-0.048
-0.0245,-0.1475,-0.0505
-0.02,-0.1435,-0.0505
-0.02,-0.1435,-0.049
-0.018,-0.1425,-0.0435
-0.016,-0.142,-0.039
-0.0175,-0.141,-0.039
-0.014,-0.138,-0.0365
-0.0165,-0.1395,-0.039
-0.0225,-0.141,-0.0425
-0.026,-0.141,-0.0435
-0.0255,-0.1385,-0.045
-0.0215,-0.138,-0.0405
-0.022,-0.1385,-0.0375
-0.0185,-0.137,-0.037
-0.016,-0.1375,-0.0375
-0.014,-0.135,-0.0365
-0.014,-0.1325,-0.0365
-0.0165,-0.1345,-0.0395
-0.021,-0.1325,-0.034
-0.0225,-0.1315,-0.0315
-0.0185,-0.131,-0.035
-0.016,-0.128,-0.0345
-0.0125,-0.127,-0.0305
-0.014,-0.124,-0.028
-0.015,-0.1215,-0.0275
-0.0125,-0.1205,-0.027
-0.013,-0.12,-0.028
-0.0125,-0.119,-0.0265
-0.011,-0.118,-0.0255
-0.0105,-0.115,-0.021
-0.0095,-0.113,-0.0165
-0.01,-0.112,-0.0175
-0.008,-0.11,-0.0155
-0.004,-0.108,-0.0145
-0.0025,-0.108,-0.016
-0.003,-0.1055,-0.018
-0.0055,-0.103,-0.017
-0.006,-0.1025,-0.0135
-0.006,-0.1005,-0.0095
-0.005,-0.0995,-0.007
-0.0015,-0.097,-0.0085
-0.0015,-0.0945,-0.0095
-0.003,-0.0935,-0.0075
-0.0025,-0.091,-0.0025
0.001,-0.0875,-0.003
0.004,-0.0835,-0.004
0.0025,-0.082,-0.0035
-0.001,-0.0855,-0.002
0.0,-0.084,0.0035
0.0005,-0.081,0.005
0.0,-0.0785,0.008
0.001,-0.075,0.0115
-0.0015,-0.074,0.0105
-0.0025,-0.0715,0.0095
-0.003,-0.0705,0.009
-0.0015,-0.067,0.0105
0.001,-0.063,0.0135
0.002,-0.061,0.01
0.006,-0.0585,0.0115
0.0075,-0.056,0.019
0.0115,-0.0535,0.021
0.015,-0.0515,0.023
0.013,-0.049,0.0205
0.009,-0.046,0.019
0.0075,-0.044,0.023
0.008,-0.0415,0.0295
0.013,-0.039,0.0335
0.014,-0.0365,0.0345
0.0115,-0.034,0.034
0.0175,-0.03,0.034
0.0185,-0.0255,0.038
0.017,-0.024,0.042
0.0185,-0.021,0.0435
0.0205,-0.0165,0.0445
0.024,-0.0135,0.0465
0.025,-0.0095,0.05
0.026,-0.0065,0.0545
0.028,-0.002,0.0545
0.028,0.002,0.0535
0.031,0.0055,0.0575
0.0345,0.0095,0.0585
0.0345,0.013,0.0585
0.037,0.018,0.061
0.037,0.022,0.067
0.035,0.0275,0.0705
0.0395,0.032,0.0715
0.0405,0.036,0.078
0.0405,0.0415,0.0845
0.043,0.046,0.0865
0.0445,0.049,0.089
0.045,0.054,0.0975
0.047,0.0595,0.103
0.0505,0.065,0.102
0.052,0.0705,0.104
0.0535,0.075,0.1055
0.0565,0.0815,0.1085
0.058,0.0865,0.1115
0.062,0.0925,0.115
0.066,0.0985,0.12
0.067,0.104,0.1225
0.0705,0.1095,0.127
0.0705,0.114,0.131
0.07,0.12,0.135
0.0735,0.127,0.142
0.0755,0.1335,0.1485
0.0775,0.1395,0.152
0.081,0.1455,0.1555
0.084,0.151,0.161
0.0835,0.1565,0.161
0.0855,0.1635,0.1595
0.087,0.1695,0.165
0.0895,0.1755,0.175
0.09,0.181,0.1805
0.089,0.185,0.1805
0.09,0.1885,0.181
0.0855,0.1925,0.1815
0.088,0.1985,0.184
0.09,0.2035,0.1875
0.0895,0.2075,0.191
0.093,0.213,0.1955
0.0935,0.2165,0.198
0.096,0.2225,0.2025
0.098,0.2275,0.2065
0.097,0.231,0.21
0.097,0.2365,0.213
0.098,0.2415,0.2145
0.1005,0.247,0.2145
0.104,0.2495,0.2195
0.108,0.253,0.2235
0.107,0.258,0.2265
0.105,0.261,0.236
0.1055,0.264,0.2435
0.0995,0.264,0.2425
0.096,0.2665,0.2395
0.099,0.269,0.2395
0.1005,0.272,0.2415
0.102,0.276,0.244
0.101,0.2775,0.248
0.101,0.28,0.2515
0.101,0.2815,0.2525
0.098,0.284,0.253
0.1025,0.286,0.2535
0.1045,0.2875,0.253
0.105,0.292,0.255
0.103,0.2885,0.2605
0.1025,0.285,0.26
0.103,0.2865,0.258
0.0995,0.2855,0.258
0.102,0.2835,0.2555
0.103,0.281,0.2535
0.104,0.28,0.254
0.104,0.2775,0.2565
0.0985,0.2735,0.255
0.097,0.27,0.248
0.095,0.265,0.243
0.0955,0.262,0.243
0.0965,0.2565,0.24
0.0925,0.249,0.2355
0.089,0.244,0.229
0.0865,0.2375,0.2245
0.087,0.2305,0.2225
0.0855,0.2245,0.217
0.084,0.218,0.213
0.082,0.2105,0.2085
0.0785,0.2015,0.2055
0.075,0.1945,0.2015
0.067,0.186,0.1965
0.0635,0.177,0.1945
0.059,0.169,0.188
0.0555,0.159,0.1805
0.052,0.152,0.1735
0.0465,0.142,0.1685
0.0455,0.1335,0.164
0.0455,0.1255,0.153
0.044,0.116,0.144
0.039,0.11,0.142
0.0365,0.1,0.138
0.0315,0.091,0.1345
0.0255,0.0845,0.1325
0.0225,0.076,0.1215
0.021,0.068,0.1125
0.0195,0.061,0.11
0.017,0.054,0.1055
0.016,0.047,0.101
0.012,0.0395,0.097
0.0085,0.034,0.094
0.007,0.026,0.0915
0.004,0.0205,0.0895
0.001,0.015,0.087
-0.0005,0.008,0.0825
0.0005,0.003,0.0805
0.0,-0.002,0.0775
-0.0025,-0.0085,0.0735
-0.0075,-0.016,0.0685
-0.009,-0.02,0.064
-0.007,-0.025,0.06
-0.01,-0.03,0.0515
-0.0095,-0.034,0.0495
-0.0095,-0.0385,0.0515
-0.011,-0.0415,0.049
-0.0115,-0.046,0.0465
-0.015,-0.051,0.042
-0.02,-0.0555,0.0335
-0.023,-0.0605,0.0315
-0.0205,-0.063,0.034
-0.0215,-0.0655,0.0345
-0.027,-0.0705,0.034
-0.027,-0.074,0.0325
-0.026,-0.076,0.031
-0.027,-0.077,0.03
-0.0265,-0.0805,0.0295
-0.025,-0.0835,0.0315
-0.026,-0.0865,0.029
-0.025,-0.0865,0.021
-0.0235,-0.0875,0.016
-0.025,-0.0905,0.0155
-0.0235,-0.0925,0.018
-0.026,-0.0955,0.0165
-0.0245,-0.0965,0.0175
-0.022,-0.099,0.018
-0.025,-0.1005,0.015
-0.023,-0.1005,0.018
-0.0235,-0.103,0.016
-0.0285,-0.105,0.0155
-0.0345,-0.1055,0.017
-0.037,-0.1075,0.016
-0.037,-0.1085,0.016
-0.035,-0.109,0.014
-0.0335,-0.109,0.0155
-0.0355,-0.108,0.016
-0.0335,-0.107,0.0175
-0.0335,-0.108,0.023
-0.0365,-0.109,0.0185
-0.037,-0.1095,0.0145
-0.0345,-0.11,0.0135
-0.0315,-0.1075,0.0135
-0.03,-0.1055,0.0155
-0.0325,-0.111,0.015
-0.0335,-0.113,0.0145
-0.0335,-0.112,0.0135
-0.034,-0.1135,0.014
-0.0335,-0.113,0.0145
-0.0345,-0.1135,0.013
-0.0355,-0.1125,0.012
-0.037,-0.1125,0.0145
-0.0355,-0.1125,0.016
-0.0315,-0.1125,0.014
-0.0295,-0.114,0.015
-0.033,-0.1135,0.0125
-0.0325,-0.114,0.013
-0.0295,-0.114,0.0155
-0.031,-0.113,0.0165
-0.0295,-0.114,0.0185
-0.026,-0.114,0.0135
-0.0265,-0.1145,0.009
-0.027,-0.1135,0.0085
-0.024,-0.114,0.0055
-0.0245,-0.113,0.0025
-0.024,-0.114,0.0075
-0.023,-0.114,0.012
-0.0225,-0.113,0.009
-0.021,-0.115,0.007
-0.022,-0.115,0.008
-0.0265,-0.1155,0.0085
-0.03,-0.1155,0.01
-0.0295,-0.117,0.014
-0.0295,-0.1185,0.016
-0.0265,-0.118,0.0165
-0.0255,-0.1185,0.0165
-0.0255,-0.118,0.016
-0.028,-0.119,0.017
-0.029,-0.1195,0.0175
-0.027,-0.1205,0.021
-0.024,-0.1205,0.0205
-0.021,-0.1205,0.0155
-0.0285,-0.123,0.0105
-0.034,-0.1235,0.0085
-0.035,-0.124,0.0075
-0.0345,-0.1255,0.006
-0.0315,-0.124,0.0105
-0.029,-0.1245,0.006
-0.0265,-0.1245,0.003
-0.0265,-0.1245,0.003
-0.029,-0.1255,0.003
-0.0315,-0.1255,0.0075
-0.03,-0.1255,0.009
-0.0305,-0.1255,0.0105
-0.0305,-0.127,0.013
-0.03,-0.1275,0.011
-0.0305,-0.1255,0.012
-0.0295,-0.1265,0.0155
-0.0305,-0.1255,0.0165
-0.03,-0.125,0.018
-0.029,-0.1255,0.0165
-0.0285,-0.1255,0.0125
-0.0265,-0.128,0.009
-0.0285,-0.129,0.0105
-0.03,-0.1285,0.011
-0.0275,-0.129,0.009
-0.024,-0.1305,0.0075
-0.0235,-0.13,0.0055
-0.025,-0.1295,0.0085
-0.025,-0.1315,0.0075
-0.029,-0.1315,0.009
-0.031,-0.131,0.0135
-0.0315,-0.1315,0.012
-0.031,-0.1325,0.0095
-0.029,-0.132,0.008
-0.0305,-0.1335,0.0105
-0.03,-0.1345,0.013
-0.0315,-0.1335,0.012
-0.034,-0.135,0.014
-0.033,-0.133,0.0175
-0.033,-0.1325,0.015
-0.036,-0.1365,0.013
-0.037,-0.1365,0.0115
-0.0365,-0.136,0.0115
-0.039,-0.1375,0.011
-0.0365,-0.137,0.009
-0.0325,-0.137,0.0115
-0.035,-0.136,0.01
-0.0375,-0.136,0.0035
-0.0415,-0.1365,0.002
-0.0415,-0.137,0.007
-0.041,-0.137,0.0085
-0.0415,-0.1375,0.007
-0.039,-0.137,0.0065
-0.0395,-0.1355,0.007
-0.0395,-0.133,0.0105
-0.039,-0.134,0.0135
-0.0415,-0.136,0.013
-0.0425,-0.135,0.0145
-0.044,-0.136,0.0145
-0.042,-0.1335,0.011
-0.0395,-0.1335,0.01
-0.04,-0.137,0.0065
-0.042,-0.1365,0.0065
-0.045,-0.135,0.0055
-0.042,-0.1345,0.003
-0.04,-0.134,0.004
-0.038,-0.133,0.0035
-0.0355,-0.133,0.0025
-0.038,-0.1345,0.0025
-0.039,-0.133,0.0075
-0.039,-0.131,0.009
-0.0355,-0.132,0.0085
-0.034,-0.1325,0.0105
-0.0365,-0.133,0.0105
-0.0365,-0.1325,0.009
-0.036,-0.132,0.005
-0.0375,-0.132,0.0045
-0.0385,-0.133,0.0035
-0.0385,-0.1345,0.0035
-0.039,-0.1345,-0.0005
-0.04,-0.1355,-0.005
-0.0375,-0.1345,0.001
-0.0335,-0.135,0.005
-0.0335,-0.1335,0.0035
-0.0385,-0.133,0.0015
-0.043,-0.135,-0.0005
-0.041,-0.134,-0.0045
-0.04,-0.135,-0.007
-0.0375,-0.134,-0.009
-0.0385,-0.133,-0.006
-0.0405,-0.132,0.0025
-0.037,-0.1325,0.002
-0.0355,-0.1325,-0.001
-0.0385,-0.133,-0.001
-0.039,-0.1345,0.001
-0.036,-0.134,0.0015
-0.035,-0.1355,0.0
-0.0335,-0.1355,0.002
-0.0345,-0.134,0.004
-0.0325,-0.134,0.0005
-0.0325,-0.134,-0.0025
-0.0335,-0.135,-0.003
-0.033,-0.136,-0.002
-0.032,-0.1345,-0.007
-0.0305,-0.1345,-0.011
-0.03,-0.134,-0.0065
-0.03,-0.135,-0.008
-0.03,-0.1365,-0.0105
-0.0305,-0.135,-0.0095
-0.032,-0.1345,-0.0065
-0.0305,-0.1345,-0.006
-0.03,-0.134,-0.005
-0.0295,-0.134,-0.0075
-0.0305,-0.136,-0.007
-0.03,-0.138,-0.0005
-0.025,-0.1355,-0.002
-0.0255,-0.136,-0.0015
-0.0265,-0.137,-0.002
-0.028,-0.1365,-0.0015
-0.027,-0.1385,-0.0005
-0.024,-0.138,-0.0055
-0.026,-0.1385,-0.0105
-0.027,-0.1395,-0.016
-0.031,-0.14,-0.0205
-0.035,-0.142,-0.0215
-0.034,-0.1425,-0.018
-0.0335,-0.1415,-0.0155
-0.033,-0.1425,-0.0145
-0.032,-0.1425,-0.0135
-0.0305,-0.1425,-0.012
-0.0295,-0.1425,-0.0085
-0.028,-0.1425,-0.008
-0.026,-0.1445,-0.0105
-0.027,-0.1455,-0.01
-0.0285,-0.145,-0.0095
-0.027,-0.1445,-0.012
-0.028,-0.145,-0.012
-0.0295,-0.1455,-0.0095
-0.0295,-0.145,-0.011
-0.031,-0.1455,-0.015
-0.0265,-0.1425,-0.014
-0.0255,-0.143,-0.0135
-0.034,-0.15,-0.0175
-0.033,-0.149,-0.019
-0.03,-0.148,-0.021
-0.029,-0.1485,-0.0225
-0.0265,-0.1485,-0.022
-0.0265,-0.1485,-0.0235
-0.0265,-0.1475,-0.024
-0.0295,-0.15,-0.0205
-0.033,-0.152,-0.02
-0.031,-0.152,-0.022
-0.0295,-0.15,-0.0225
-0.032,-0.1505,-0.0235
-0.028,-0.152,-0.0215
-0.0275,-0.15,-0.0165
-0.031,-0.151,-0.016
-0.0345,-0.1535,-0.021
-0.038,-0.155,-0.023
-0.0395,-0.155,-0.0245
-0.037,-0.155,-0.0265
-0.0335,-0.153,-0.022
-0.035,-0.1525,-0.0205
-0.036,-0.154,-0.02
-0.036,-0.1555,-0.0175
-0.0375,-0.1565,-0.0195
-0.0365,-0.158,-0.0185
-0.038,-0.159,-0.0215
-0.04,-0.159,-0.023
-0.0375,-0.1585,-0.017
-0.042,-0.1585,-0.0135
-0.0425,-0.159,-0.0145
-0.04,-0.1595,-0.016
-0.0425,-0.161,-0.014
-0.0435,-0.162,-0.0165
-0.043,-0.1615,-0.017
-0.0405,-0.1615,-0.017
-0.0435,-0.1625,-0.019
-0.043,-0.161,-0.0175
-0.038,-0.161,-0.0185
-0.0395,-0.162,-0.0225
-0.0405,-0.1625,-0.0225
-0.04,-0.162,-0.0195
-0.0365,-0.162,-0.023
-0.0375,-0.1625,-0.0205
-0.0405,-0.1635,-0.018
-0.04,-0.164,-0.021
-0.041,-0.1635,-0.024
-0.041,-0.1665,-0.0225
-0.043,-0.166,-0.018
-0.043,-0.166,-0.016
-0.041,-0.167,-0.017
-0.0435,-0.169,-0.0185
-0.042,-0.1695,-0.018
-0.0425,-0.169,-0.018
-0.0435,-0.169,-0.016
-0.0405,-0.168,-0.016
-0.042,-0.17,-0.0145
-0.04,-0.1675,-0.011
-0.0395,-0.169,-0.013
-0.04,-0.171,-0.0175
-0.04,-0.169,-0.018
-0.043,-0.1715,-0.015
-0.0415,-0.171,-0.0125
-0.0395,-0.17,-0.0135
-0.04,-0.171,-0.0145
-0.0405,-0.1715,-0.017
-0.0385,-0.172,-0.0185
-0.037,-0.1725,-0.0165
-0.041,-0.1725,-0.0185
-0.0425,-0.1725,-0.018
-0.047,-0.1735,-0.018
-0.0505,-0.1745,-0.0215
-0.047,-0.1735,-0.0225
-0.0455,-0.173,-0.023
-0.044,-0.1745,-0.0185
-0.044,-0.1735,-0.0155
-0.0465,-0.1745,-0.0155
-0.0465,-0.1775,-0.0145
-0.0435,-0.1765,-0.0165
-0.0405,-0.1765,-0.02
-0.041,-0.1775,-0.0195
-0.0435,-0.176,-0.0185
-0.0425,-0.174,-0.018
-0.0405,-0.175,-0.018
-0.037,-0.176,-0.0195
-0.038,-0.1745,-0.0235
-0.0405,-0.173,-0.025
-0.0375,-0.1725,-0.021
-0.0395,-0.1765,-0.023
-0.041,-0.1765,-0.0205
-0.0425,-0.1755,-0.017
-0.044,-0.175,-0.0155
-0.043,-0.175,-0.0135
-0.0435,-0.177,-0.017
-0.041,-0.1765,-0.0185
-0.0405,-0.1765,-0.017
-0.043,-0.176,-0.019
-0.044,-0.1775,-0.0205
-0.0425,-0.1785,-0.0195
-0.04,-0.178,-0.0205
-0.044,-0.1785,-0.022
-0.046,-0.1785,-0.0185
-0.0455,-0.1785,-0.0175
-0.044,-0.179,-0.016
-0.0435,-0.178,-0.0145
-0.044,-0.1785,-0.016
-0.038,-0.1775,-0.0155
-0.0385,-0.1775,-0.017
-0.041,-0.1785,-0.016
-0.0415,-0.1795,-0.0155
-0.0415,-0.1795,-0.0155
-0.0375,-0.179,-0.0145
-0.0405,-0.1795,-0.015
-0.043,-0.1805,-0.0175
-0.0455,-0.181,-0.02
-0.047,-0.18,-0.019
-0.043,-0.18,-0.016
-0.043,-0.18,-0.017
-0.044,-0.182,-0.021
-0.044,-0.183,-0.022
-0.0415,-0.183,-0.0215
-0.0415,-0.184,-0.019
-0.0455,-0.1835,-0.0205
-0.045,-0.1835,-0.022
-0.042,-0.184,-0.021
-0.0435,-0.185,-0.022
-0.0445,-0.1855,-0.023
-0.0435,-0.185,-0.0195
-0.043,-0.1845,-0.0145
-0.0445,-0.184,-0.0145
-0.0475,-0.185,-0.0195
-0.046,-0.185,-0.0185
-0.047,-0.1835,-0.0125
-0.044,-0.1845,-0.013
-0.0435,-0.1835,-0.0135
-0.0475,-0.184,-0.013
-0.0465,-0.1835,-0.011
-0.047,-0.1825,-0.0105
-0.048,-0.1845,-0.0165
-0.0485,-0.183,-0.0205
-0.0485,-0.184,-0.023
-0.0505,-0.185,-0.0215
-0.05,-0.1835,-0.018
-0.0465,-0.184,-0.0145
-0.0455,-0.182,-0.014
-0.0455,-0.1825,-0.0185
-0.0465,-0.1825,-0.02
-0.0475,-0.184,-0.0215
-0.0505,-0.185,-0.0225
-0.0515,-0.184,-0.0195
-0.0515,-0.1845,-0.0205
-0.0515,-0.1845,-0.0245
-0.049,-0.184,-0.019
-0.0485,-0.184,-0.0135
-0.047,-0.1845,-0.013
-0.045,-0.185,-0.0125
-0.0435,-0.184,-0.0105
-0.0405,-0.184,-0.0095
-0.0415,-0.185,-0.014
-0.044,-0.185,-0.02
-0.0445,-0.185,-0.0205
-0.047,-0.1875,-0.019
-0.047,-0.1865,-0.018
-0.0455,-0.1865,-0.0165
-0.0435,-0.185,-0.016
-0.0405,-0.1825,-0.014
-0.045,-0.187,-0.02
-0.0465,-0.189,-0.0225
-0.0445,-0.1875,-0.018
-0.047,-0.187,-0.014
-0.0465,-0.187,-0.0125
-0.0485,-0.187,-0.015
-0.0485,-0.1875,-0.0155
-0.0465,-0.188,-0.015
-0.0465,-0.188,-0.015
-0.0505,-0.188,-0.0135
-0.053,-0.1885,-0.0135
-0.0515,-0.1895,-0.0135
-0.05,-0.19,-0.0165
-0.048,-0.191,-0.0175
-0.05,-0.189,-0.0155
-0.0505,-0.1885,-0.016
-0.051,-0.189,-0.016
-0.0535,-0.189,-0.016
-0.055,-0.19,-0.0165
-0.053,-0.19,-0.0165
-0.05,-0.1885,-0.02
-0.05,-0.1905,-0.0225
-0.0495,-0.1905,-0.021
-0.0515,-0.1885,-0.02
-0.051,-0.189,-0.017
-0.0475,-0.188,-0.0135
-0.047,-0.1905,-0.0155
-0.0475,-0.191,-0.013
-0.0475,-0.1895,-0.013
-0.0505,-0.19,-0.0155
-0.0505,-0.189,-0.0165
-0.051,-0.189,-0.017
-0.0515,-0.1895,-0.019
-0.0495,-0.191,-0.0195
-0.0515,-0.19,-0.0185
-0.053,-0.19,-0.0185
-0.0535,-0.1905,-0.0185
-0.054,-0.19,-0.0175
-0.0535,-0.1905,-0.0185
-0.051,-0.1895,-0.0205
-0.0505,-0.19,-0.0195
-0.051,-0.1885,-0.0205
-0.0505,-0.1895,-0.0205
-0.0535,-0.1905,-0.0185
-0.0535,-0.191,-0.0185
-0.0555,-0.191,-0.0165
-0.0575,-0.1895,-0.0155
-0.056,-0.19,-0.017
-0.0545,-0.19,-0.0175
-0.056,-0.1895,-0.015
-0.0575,-0.1895,-0.016
-0.0545,-0.189,-0.0165
-0.0535,-0.1875,-0.019
-0.0535,-0.1895,-0.0195
-0.055,-0.1885,-0.018
-0.0575,-0.189,-0.0175
-0.0565,-0.1905,-0.0165
-0.056,-0.1895,-0.0185
-0.0525,-0.1915,-0.018
-0.0535,-0.1925,-0.0195
-0.058,-0.194,-0.0225
-0.0545,-0.1925,-0.02
-0.0545,-0.192,-0.0145
-0.057,-0.1925,-0.015
-0.055,-0.1925,-0.0145
-0.054,-0.196,-0.0095
-0.0535,-0.1965,-0.0115
-0.0545,-0.196,-0.0145
-0.059,-0.1975,-0.014
-0.057,-0.199,-0.0155
-0.053,-0.197,-0.015
-0.0545,-0.196,-0.0145
-0.055,-0.1975,-0.016
-0.054,-0.198,-0.013
-0.053,-0.196,-0.0095
-0.0545,-0.196,-0.011
-0.057,-0.1965,-0.015
-0.0575,-0.1965,-0.011
-0.0545,-0.197,-0.0075
-0.0495,-0.196,-0.0095
-0.049,-0.197,-0.0095
-0.05,-0.1975,-0.0105
-0.05,-0.197,-0.0075
-0.051,-0.196,-0.0065
-0.0535,-0.1975,-0.01
-0.0565,-0.198,-0.0105
-0.0575,-0.1965,-0.0085
-0.0555,-0.1935,-0.0065
-0.0525,-0.193,-0.0035
-0.0575,-0.1985,-0.005
-0.0615,-0.199,-0.0085
-0.0595,-0.198,-0.006
-0.0545,-0.1995,-0.0065
-0.0535,-0.196,-0.0095
-0.054,-0.196,-0.012
-0.0555,-0.197,-0.0105
-0.0575,-0.196,-0.0085
-0.0545,-0.196,-0.0095
-0.0575,-0.195,-0.009
-0.0575,-0.1955,-0.013
-0.0545,-0.1955,-0.015
-0.056,-0.196,-0.0175
-0.0575,-0.197,-0.0155
-0.059,-0.198,-0.01
-0.0605,-0.1985,-0.0085
-0.063,-0.1995,-0.009
-0.0635,-0.1985,-0.0115
-0.063,-0.198,-0.009
-0.065,-0.1985,-0.008
-0.066,-0.1975,-0.006
-0.0675,-0.198,-0.0045
-0.0655,-0.198,-0.004
-0.061,-0.198,-0.0045
-0.0575,-0.1975,-0.0095
-0.054,-0.1975,-0.01
-0.057,-0.198,-0.0075
-0.065,-0.1995,-0.013
-0.0675,-0.199,-0.0185
-0.0685,-0.2,-0.0155
-0.0705,-0.2,-0.0155
-0.0685,-0.1995,-0.015
-0.0665,-0.2,-0.0115
-0.067,-0.199,-0.011
-0.073,-0.1985,-0.011
-0.074,-0.198,-0.008
-0.0725,-0.2,-0.0065
-0.074,-0.202,-0.0055
-0.074,-0.2015,-0.007
-0.0715,-0.2005,-0.01
-0.072,-0.2,-0.009
-0.074,-0.1995,-0.0075
-0.0715,-0.2005,-0.0055
-0.0705,-0.2005,-0.0065
-0.0695,-0.2015,-0.009
-0.07,-0.203,-0.01
-0.071,-0.202,-0.011
-0.071,-0.2015,-0.0125
-0.0725,-0.1995,-0.0105
-0.0715,-0.199,-0.011
-0.0715,-0.2,-0.0155
-0.0705,-0.2005,-0.016
-0.072,-0.2,-0.013
-0.0705,-0.2,-0.009
-0.0695,-0.199,-0.0085
-0.0705,-0.199,-0.0065
-0.07,-0.199,-0.0065
-0.0705,-0.199,-0.0055
-0.0705,-0.2005,-0.0035
-0.0715,-0.1975,-0.0035
-0.0715,-0.1975,-0.001
-0.069,-0.197,0.0015
-0.0675,-0.196,0.0025
-0.067,-0.196,0.0025
-0.063,-0.1925,0.0055
-0.061,-0.191,0.008
-0.0585,-0.1905,0.013
-0.0555,-0.188,0.017
-0.057,-0.1865,0.017
-0.0585,-0.188,0.014
-0.0625,-0.188,0.011
-0.064,-0.1865,0.0125
-0.0615,-0.185,0.016
-0.0605,-0.184,0.0255
-0.0615,-0.1825,0.032
-0.057,-0.1805,0.0355
-0.0545,-0.1805,0.0445
-0.0575,-0.1825,0.047
-0.061,-0.1865,0.0435
-0.072,-0.188,0.0455
-0.0755,-0.187,0.048
-0.0725,-0.1865,0.0505
-0.072,-0.187,0.0515
-0.071,-0.186,0.05
-0.07,-0.1835,0.0535
-0.0675,-0.183,0.053
-0.0685,-0.1815,0.0495
-0.0685,-0.181,0.047
-0.0675,-0.1805,0.049
-0.066,-0.1785,0.049
-0.062,-0.177,0.0465
-0.061,-0.175,0.047
-0.057,-0.171,0.0465
-0.058,-0.169,0.051
-0.0645,-0.176,0.046
-0.0595,-0.1765,0.0435
-0.0555,-0.1725,0.045
-0.057,-0.1715,0.0435
-0.059,-0.1715,0.05
-0.0605,-0.1725,0.056
-0.0605,-0.1715,0.0645
-0.0605,-0.1695,0.073
-0.062,-0.17,0.0815
-0.065,-0.17,0.0865
-0.0635,-0.171,0.09
-0.062,-0.172,0.0975
-0.061,-0.168,0.104
-0.0585,-0.165,0.1095
-0.0565,-0.1655,0.112
-0.057,-0.165,0.114
-0.055,-0.166,0.113
-0.0465,-0.162,0.1165
-0.039,-0.157,0.118
-0.0355,-0.1535,0.116
-0.036,-0.1515,0.1165
-0.0355,-0.1515,0.11
-0.0305,-0.148,0.109
-0.0295,-0.1465,0.105
-0.0295,-0.1445,0.098
-0.03,-0.142,0.0985
-0.0335,-0.144,0.092
-0.034,-0.146,0.088
-0.0335,-0.1465,0.083
-0.0325,-0.15,0.076
-0.0295,-0.154,0.0725
-0.0315,-0.156,0.0705
-0.0335,-0.158,0.07
-0.0335,-0.1555,0.069
-0.031,-0.153,0.065
-0.0265,-0.1505,0.0635
-0.0205,-0.1455,0.0685
-0.021,-0.144,0.063
-0.023,-0.142,0.058
-0.0215,-0.1385,0.0595
-0.021,-0.1345,0.0625
-0.017,-0.131,0.0625
-0.0145,-0.129,0.057
-0.0125,-0.129,0.056
-0.01,-0.1285,0.0515
-0.0085,-0.127,0.049
-0.0125,-0.1275,0.0445
-0.0165,-0.13,0.0405
-0.014,-0.13,0.038
-0.014,-0.1295,0.035
-0.0115,-0.1305,0.033
-0.0125,-0.131,0.0305
-0.0135,-0.1315,0.0285
-0.012,-0.132,0.0245
-0.0165,-0.133,0.0285
-0.0205,-0.135,0.034
-0.0215,-0.1355,0.0355
-0.023,-0.1375,0.037
-0.024,-0.1385,0.04
-0.028,-0.138,0.042
-0.029,-0.138,0.039
-0.0295,-0.14,0.0365
-0.0285,-0.1435,0.0325
-0.03,-0.147,0.025
-0.034,-0.151,0.0215
-0.0315,-0.153,0.0215
-0.034,-0.1535,0.023
-0.0405,-0.158,0.022
-0.0455,-0.1645,0.019
-0.051,-0.167,0.0165
-0.0545,-0.17,0.0115
-0.057,-0.1715,0.011
-0.058,-0.171,0.011
-0.061,-0.174,0.0075
-0.0665,-0.1765,0.005
-0.068,-0.18,0.0005
-0.0725,-0.1845,-0.0055
-0.0745,-0.1865,-0.008
-0.0725,-0.1885,-0.009
-0.0745,-0.1885,-0.0065
-0.077,-0.192,-0.0065
-0.08,-0.1985,-0.0115
-0.078,-0.2005,-0.0135
-0.077,-0.2015,-0.011
-0.0775,-0.203,-0.013
-0.08,-0.205,-0.0155
-0.0855,-0.2065,-0.0175
-0.087,-0.209,-0.021
-0.083,-0.209,-0.0215
-0.0815,-0.212,-0.0275
-0.085,-0.2145,-0.0325
-0.0855,-0.212,-0.0335
-0.086,-0.214,-0.035
-0.0875,-0.215,-0.0355
-0.0875,-0.2165,-0.038
-0.087,-0.2165,-0.0375
-0.0855,-0.216,-0.0385
-0.083,-0.2155,-0.039
-0.082,-0.214,-0.039
-0.0875,-0.2145,-0.0385
-0.09,-0.2155,-0.0345
-0.0875,-0.216,-0.033
-0.0885,-0.216,-0.0315
-0.0875,-0.217,-0.031
-0.0845,-0.216,-0.031
-0.0845,-0.2135,-0.0295
-0.0845,-0.2145,-0.026
-0.0875,-0.215,-0.0275
-0.0865,-0.214,-0.03
-0.084,-0.216,-0.031
-0.0825,-0.2145,-0.035
-0.083,-0.214,-0.037
-0.085,-0.2135,-0.034
-0.0845,-0.212,-0.032
-0.085,-0.2115,-0.0335
-0.083,-0.214,-0.031
-0.0835,-0.2145,-0.0315
-0.085,-0.213,-0.0355
-0.085,-0.213,-0.035
-0.0855,-0.213,-0.0335
-0.0865,-0.217,-0.031
-0.0875,-0.2195,-0.0335
-0.0895,-0.2205,-0.0375
-0.089,-0.222,-0.0385
-0.0885,-0.223,-0.0465
-0.0855,-0.224,-0.0515
-0.0805,-0.2255,-0.0545
-0.077,-0.224,-0.063
-0.0695,-0.215,-0.071
-0.0645,-0.211,-0.0805
-0.065,-0.2075,-0.0835
-0.07,-0.208,-0.083
-0.078,-0.2115,-0.0775
-0.084,-0.212,-0.0675
-0.089,-0.2155,-0.0575
-0.084,-0.2005,-0.041
-0.0685,-0.1675,-0.0235
-0.052,-0.13,-0.0125
-0.0375,-0.0895,-0.005
-0.0215,-0.045,0.0105
-0.006,0.0035,0.0335
0.013,0.0515,0.045
0.036,0.097,0.053
0.057,0.1445,0.064
0.0885,0.2175,0.0735
0.1345,0.32,0.0905
0.1835,0.4455,0.1135
0.2185,0.569,0.15
0.2415,0.684,0.208
0.2665,0.821,0.2685
0.297,0.9715,0.329
0.3355,1.1315,0.3875
0.3825,1.301,0.4275
0.4245,1.463,0.465
0.4575,1.605,0.4995
0.489,1.7445,0.532
0.513,1.8695,0.575
0.5385,1.965,0.6125
0.563,2.051,0.642
0.578,2.0965,0.6565
0.5865,2.1025,0.6645
0.59,2.0945,0.6885
0.576,2.0595,0.714
0.549,1.9775,0.739
0.5195,1.874,0.761
0.4785,1.762,0.786
0.438,1.6325,0.809
0.3935,1.502,0.8145
0.3385,1.366,0.825
0.2815,1.226,0.834
0.2305,1.095,0.8315
0.184,0.97,0.8335
0.135,0.834,0.839
0.086,0.6935,0.8505
0.0385,0.5605,0.852
0.0005,0.4445,0.8425
-0.029,0.34,0.832
-0.0365,0.27,0.8
-0.029,0.2295,0.7585
-0.0435,0.184,0.735
-0.054,0.142,0.704
-0.056,0.101,0.656
-0.0635,0.0545,0.6085
-0.0705,0.0095,0.563
-0.0775,-0.0245,0.5215
-0.0825,-0.0585,0.499
-0.0935,-0.094,0.488
-0.097,-0.1215,0.4705
-0.0965,-0.1375,0.4525
-0.0955,-0.153,0.4255
-0.094,-0.161,0.3975
-0.1015,-0.1695,0.375
-0.098,-0.1765,0.3455
-0.09,-0.178,0.314
-0.0855,-0.1895,0.281
-0.084,-0.195,0.2555
-0.0845,-0.196,0.2395
-0.0845,-0.1945,0.228
-0.0845,-0.1885,0.217
-0.0845,-0.1815,0.2045
-0.0835,-0.184,0.186
-0.0805,-0.1875,0.165
-0.078,-0.1825,0.149
-0.0735,-0.1735,0.136
-0.067,-0.1665,0.124
-0.064,-0.1625,0.114
-0.0665,-0.1595,0.1055
-0.071,-0.161,0.0985
-0.0705,-0.162,0.0905
-0.0685,-0.163,0.0805
-0.0715,-0.165,0.0685
-0.075,-0.1665,0.063
-0.0725,-0.17,0.0645
-0.073,-0.1715,0.059
-0.075,-0.1735,0.056
-0.0705,-0.175,0.054
-0.0685,-0.1775,0.0505
-0.067,-0.181,0.0435
-0.07,-0.181,0.0355
-0.0745,-0.1815,0.033
-0.0725,-0.1835,0.032
-0.0705,-0.1835,0.033
-0.0715,-0.1845,0.0305
-0.072,-0.186,0.028
-0.071,-0.1855,0.0285
-0.0685,-0.1855,0.029
-0.068,-0.187,0.028
-0.069,-0.188,0.0265
-0.068,-0.1905,0.026
-0.0665,-0.1905,0.022
-0.0655,-0.19,0.017
-0.0665,-0.1905,0.013
-0.0675,-0.19,0.011
-0.0655,-0.1895,0.0135
-0.0635,-0.1885,0.0175
-0.064,-0.188,0.018
-0.064,-0.189,0.0135
-0.064,-0.188,0.0135
-0.0655,-0.1885,0.012
-0.068,-0.1885,0.015
-0.068,-0.1885,0.018
-0.0675,-0.189,0.014
-0.0665,-0.188,0.0115
-0.064,-0.1885,0.011
-0.0665,-0.1875,0.013
-0.067,-0.1865,0.0125
-0.066,-0.1855,0.015
-0.069,-0.1855,0.0155
-0.071,-0.183,0.0145
-0.073,-0.183,0.013
-0.0715,-0.1835,0.0095
-0.0705,-0.1815,0.009
-0.071,-0.1825,0.008
-0.07,-0.1815,0.007
-0.07,-0.181,0.0055
-0.068,-0.182,0.007
-0.067,-0.183,0.009
-0.0665,-0.183,0.007
-0.0635,-0.182,0.005
-0.066,-0.182,0.008
-0.0685,-0.1815,0.009
-0.067,-0.182,0.006
-0.068,-0.1815,0.0035
-0.068,-0.1805,0.0025
-0.068,-0.1795,0.0045
-0.0665,-0.1785,0.0065
-0.068,-0.178,0.011
-0.0695,-0.1765,0.012
-0.0675,-0.176,0.017
-0.067,-0.178,0.0145
-0.068,-0.183,0.006
-0.0665,-0.1815,0.011
-0.064,-0.177,0.0155
-0.0655,-0.177,0.017
-0.066,-0.177,0.015
-0.067,-0.1775,0.0155
-0.0635,-0.1775,0.0185
-0.06,-0.1765,0.0185
-0.0605,-0.1745,0.0155
-0.0625,-0.174,0.0165
-0.0655,-0.174,0.019
-0.0655,-0.173,0.016
-0.065,-0.171,0.02
-0.066,-0.1725,0.0205
-0.067,-0.1715,0.0205
-0.0635,-0.169,0.023
-0.0655,-0.17,0.025
-0.065,-0.17,0.023
-0.062,-0.1685,0.0235
-0.061,-0.1675,0.0255
-0.058,-0.167,0.023
-0.059,-0.168,0.0245
-0.06,-0.168,0.0235
-0.061,-0.168,0.0255
-0.06,-0.168,0.027
-0.059,-0.167,0.0255
-0.055,-0.1685,0.028
-0.051,-0.167,0.03
-0.0545,-0.1645,0.0295
-0.0565,-0.164,0.0325
-0.0575,-0.1625,0.0345
-0.06,-0.1625,0.033
-0.062,-0.162,0.034
-0.0615,-0.162,0.0365
-0.0615,-0.16,0.037
-0.059,-0.157,0.0365
-0.0605,-0.1565,0.034
-0.064,-0.156,0.0365
-0.062,-0.155,0.041
-0.06,-0.155,0.038
-0.055,-0.153,0.036
-0.055,-0.152,0.038
-0.059,-0.1525,0.039
-0.058,-0.1515,0.0375
-0.057,-0.1505,0.0385
-0.0555,-0.1495,0.0385
-0.054,-0.148,0.0365
-0.054,-0.1475,0.038
-0.0535,-0.147,0.0375
-0.0535,-0.1445,0.0385
-0.0535,-0.1435,0.0395
-0.0515,-0.1425,0.0425
-0.045,-0.141,0.047
-0.046,-0.1405,0.0465
-0.048,-0.1385,0.0455
-0.044,-0.1365,0.0495
-0.045,-0.136,0.0535
-0.0445,-0.1335,0.056
-0.046,-0.1325,0.057
-0.0465,-0.1315,0.0535
-0.044,-0.13,0.052
-0.043,-0.129,0.053
-0.041,-0.1265,0.057
-0.04,-0.126,0.0575
-0.041,-0.125,0.0545
-0.042,-0.123,0.055
-0.041,-0.122,0.054
-0.041,-0.12,0.057
-0.041,-0.117,0.059
-0.0425,-0.115,0.062
-0.044,-0.114,0.0645
-0.042,-0.1115,0.0675
-0.041,-0.109,0.072
-0.0405,-0.1085,0.0725
-0.0385,-0.107,0.072
-0.0395,-0.105,0.074
-0.0395,-0.1015,0.078
-0.04,-0.099,0.0795
-0.0385,-0.0935,0.078
-0.0345,-0.09,0.0775
-0.036,-0.0935,0.075
-0.0345,-0.093,0.073
-0.031,-0.0885,0.0775
-0.0305,-0.0835,0.0795
-0.03,-0.081,0.0805
-0.0275,-0.079,0.0825
-0.0275,-0.076,0.0845
-0.0285,-0.074,0.087
-0.027,-0.071,0.089
-0.0245,-0.068,0.091
-0.025,-0.0655,0.093
-0.024,-0.0615,0.0945
-0.0225,-0.058,0.0965
-0.023,-0.055,0.0995
-0.019,-0.051,0.102
-0.017,-0.0475,0.1025
-0.0155,-0.0445,0.105
-0.0165,-0.041,0.11
-0.0175,-0.0365,0.112
-0.014,-0.0345,0.1125
-0.012,-0.032,0.1125
-0.0105,-0.028,0.113
-0.012,-0.0235,0.1185
-0.0095,-0.018,0.121
-0.009,-0.014,0.1225
-0.0105,-0.0115,0.127
-0.004,-0.007,0.1295
-0.001,-0.0025,0.133
0.001,0.0015,0.137
0.003,0.0065,0.1455
0.005,0.012,0.1505
0.006,0.016,0.153
0.006,0.0195,0.159
0.0075,0.024,0.1575
0.0085,0.029,0.1585
0.0115,0.033,0.165
0.016,0.038,0.1685
0.016,0.045,0.175
0.0155,0.048,0.176
0.0175,0.0525,0.1765
0.018,0.0585,0.1815
0.0215,0.0645,0.183
0.027,0.071,0.1905
0.0275,0.0775,0.193
0.0275,0.083,0.193
0.03,0.088,0.198
0.033,0.095,0.1985
0.0355,0.101,0.1995
0.0345,0.106,0.2025
0.034,0.112,0.2145
0.0355,0.118,0.2225
0.0345,0.124,0.2275
0.0345,0.13,0.228
0.036,0.1355,0.229
0.038,0.141,0.235
0.039,0.145,0.237
0.0395,0.15,0.2405
0.039,0.1565,0.2415
0.0385,0.1615,0.2445
0.0405,0.165,0.2505
0.047,0.17,0.256
0.049,0.176,0.257
0.0495,0.181,0.26
0.0525,0.1855,0.263
0.0495,0.19,0.2635
0.0505,0.193,0.2665
0.0555,0.1975,0.2695
0.0585,0.2035,0.2735
0.059,0.207,0.277
0.0555,0.2115,0.282
0.055,0.2155,0.2875
0.056,0.219,0.2925
0.0535,0.2225,0.295
0.0505,0.224,0.298
0.051,0.2275,0.3
0.0525,0.233,0.303
0.051,0.235,0.308
0.0485,0.238,0.308
0.0525,0.242,0.309
0.056,0.2455,0.309
0.0555,0.2485,0.308
0.0555,0.252,0.3105
0.0575,0.254,0.3135
0.0575,0.2555,0.3165
0.0595,0.2575,0.3195
0.0635,0.2595,0.323
0.062,0.26,0.323
0.065,0.261,0.3245
0.0645,0.264,0.327
0.059,0.2625,0.325
0.059,0.2635,0.327
0.059,0.264,0.3305
0.059,0.263,0.33
0.057,0.261,0.332
0.055,0.2595,0.331
0.0555,0.259,0.3275
0.0535,0.2555,0.324
0.0495,0.254,0.32
0.049,0.251,0.318
0.0515,0.2465,0.314
0.052,0.2415,0.309
0.0505,0.2365,0.306
0.048,0.2325,0.303
0.049,0.2275,0.2975
0.046,0.2225,0.293
0.042,0.2145,0.287
0.043,0.2075,0.283
0.042,0.2005,0.2775
0.0415,0.192,0.2725
0.0375,0.185,0.2675
0.031,0.1775,0.26
0.0265,0.1695,0.256
0.023,0.1625,0.2515
0.021,0.154,0.248
0.021,0.1505,0.249
0.0215,0.1435,0.245
0.0165,0.1285,0.2365
0.0145,0.1195,0.2305
0.015,0.1135,0.2235
0.014,0.105,0.2165
0.0105,0.0955,0.209
0.007,0.0885,0.2025
0.007,0.0825,0.1985
0.0045,0.0745,0.192
0.003,0.0675,0.1845
-0.0005,0.0595,0.1815
-0.0045,0.052,0.1755
-0.011,0.0425,0.165
-0.014,0.0355,0.1635
-0.017,0.0305,0.1665
-0.023,0.024,0.1625
-0.0245,0.018,0.157
-0.0265,0.0095,0.152
-0.0265,0.0025,0.148
-0.0265,-0.0025,0.1455
-0.028,-0.007,0.1425
-0.0315,-0.012,0.1415
-0.0335,-0.018,0.1375
-0.034,-0.024,0.13
-0.0365,-0.03,0.1225
-0.037,-0.0335,0.114
-0.0415,-0.039,0.1125
-0.0465,-0.046,0.1135
-0.0465,-0.0485,0.1085
-0.0485,-0.052,0.106
-0.052,-0.0575,0.1015
-0.0545,-0.061,0.096
-0.0535,-0.0635,0.0985
-0.051,-0.0675,0.0985
-0.0515,-0.072,0.097
-0.054,-0.075,0.0975
-0.054,-0.077,0.095
-0.054,-0.0785,0.0935
-0.054,-0.081,0.093
-0.059,-0.0855,0.0905
-0.064,-0.0875,0.088
-0.066,-0.09,0.0855
-0.0705,-0.0915,0.0855
-0.0685,-0.0935,0.0875
-0.0645,-0.0945,0.0875
-0.0655,-0.0955,0.085
-0.065,-0.0975,0.0855
-0.068,-0.099,0.085
-0.068,-0.101,0.0815
-0.0655,-0.101,0.079
-0.0665,-0.1015,0.076
-0.068,-0.1035,0.0755
-0.0705,-0.1065,0.076
-0.0715,-0.106,0.076
-0.0735,-0.1055,0.079
-0.0725,-0.1055,0.0775
-0.0715,-0.106,0.074
-0.0725,-0.107,0.0735
-0.0715,-0.107,0.0725
-0.072,-0.1095,0.0735
-0.071,-0.1095,0.076
-0.0685,-0.1095,0.0765
-0.0695,-0.1095,0.0775
-0.0735,-0.1105,0.075
-0.0735,-0.112,0.072
-0.0705,-0.112,0.07
-0.069,-0.113,0.0725
-0.071,-0.113,0.0755
-0.074,-0.1135,0.0755
-0.0755,-0.113,0.08
-0.0765,-0.1125,0.077
-0.0755,-0.116,0.0705
-0.076,-0.117,0.064
-0.075,-0.117,0.0635
-0.077,-0.116,0.07
-0.079,-0.1155,0.0705
-0.0775,-0.116,0.07
-0.078,-0.115,0.0695
-0.0755,-0.1175,0.0685
-0.0745,-0.1185,0.0685
-0.0745,-0.117,0.0705
-0.076,-0.1175,0.071
-0.076,-0.117,0.072
-0.074,-0.118,0.071
-0.0705,-0.118,0.066
-0.068,-0.1175,0.0645
-0.0715,-0.118,0.065
-0.072,-0.1185,0.069
-0.073,-0.118,0.0685
-0.0765,-0.1195,0.0655
-0.079,-0.1195,0.064
-0.079,-0.1185,0.0595
-0.077,-0.1185,0.062
-0.0745,-0.118,0.066
-0.0745,-0.1195,0.068
-0.0765,-0.1195,0.07
-0.0785,-0.1205,0.0705
-0.0805,-0.121,0.07
-0.081,-0.1205,0.068
-0.0805,-0.121,0.0665
-0.08,-0.1205,0.069
-0.0805,-0.1215,0.071
-0.081,-0.121,0.072
-0.08,-0.1205,0.071
-0.08,-0.1215,0.0675
-0.0815,-0.1215,0.0665
-0.0795,-0.1225,0.0635
-0.0815,-0.124,0.0615
-0.083,-0.124,0.0615
-0.0825,-0.122,0.063
-0.0805,-0.122,0.0665
-0.0785,-0.1235,0.0645
-0.0775,-0.1205,0.062
-0.079,-0.1215,0.0625
-0.079,-0.1205,0.066
-0.08,-0.121,0.068
-0.0835,-0.1235,0.0645
-0.0835,-0.1215,0.063
-0.082,-0.122,0.0675
-0.0785,-0.123,0.068
-0.0795,-0.123,0.0645
-0.08,-0.123,0.0635
-0.0805,-0.124,0.063
-0.0815,-0.125,0.063
-0.0795,-0.1245,0.063
-0.081,-0.1245,0.0625
-0.077,-0.1235,0.0645
-0.074,-0.121,0.066
-0.074,-0.12,0.0645
-0.0765,-0.125,0.06
-0.0765,-0.1275,0.056
-0.073,-0.1265,0.055
-0.071,-0.1265,0.053
-0.0715,-0.1265,0.053
-0.0745,-0.1265,0.057
-0.0765,-0.127,0.063
-0.0775,-0.128,0.0625
-0.0805,-0.1275,0.058
-0.0815,-0.128,0.0585
-0.0785,-0.1275,0.0595
-0.0805,-0.1265,0.0585
-0.0815,-0.1265,0.0625
-0.0845,-0.126,0.064
-0.0875,-0.1275,0.0625
-0.0855,-0.1275,0.063
-0.0845,-0.127,0.0605
-0.083,-0.1275,0.0615
-0.0845,-0.1285,0.0625
-0.084,-0.127,0.061
-0.082,-0.127,0.062
-0.0815,-0.1285,0.061
-0.0815,-0.1275,0.058
-0.082,-0.13,0.056
-0.0805,-0.1295,0.058
-0.0805,-0.128,0.0605
-0.079,-0.1265,0.062
-0.0775,-0.1265,0.0655
-0.0795,-0.127,0.062
-0.082,-0.1275,0.0565
-0.078,-0.1285,0.0575
-0.074,-0.126,0.0615
-0.076,-0.126,0.0645
-0.075,-0.1265,0.064
-0.0775,-0.126,0.061
-0.0775,-0.1255,0.0585
-0.0755,-0.127,0.0595
-0.0735,-0.128,0.059
-0.0685,-0.129,0.0585
-0.068,-0.129,0.058
-0.0685,-0.127,0.059
-0.0675,-0.128,0.0625
-0.07,-0.13,0.0575
-0.0725,-0.131,0.0555
-0.0755,-0.1295,0.0555
-0.0775,-0.131,0.054
-0.078,-0.1315,0.0565
-0.0775,-0.1305,0.0585
-0.0755,-0.1305,0.057
-0.075,-0.1315,0.0535
-0.072,-0.1325,0.056
-0.072,-0.1285,0.06
-0.073,-0.127,0.0635
-0.075,-0.1275,0.061
-0.0805,-0.1285,0.057
-0.082,-0.1295,0.054
-0.0795,-0.129,0.05
-0.0775,-0.129,0.0515
-0.0755,-0.1285,0.05
-0.074,-0.1275,0.0475
-0.075,-0.1255,0.0485
-0.0735,-0.1265,0.046
-0.076,-0.13,0.0395
-0.0755,-0.129,0.0405
-0.075,-0.127,0.0445
-0.0765,-0.128,0.046
-0.0755,-0.127,0.0515
-0.0795,-0.128,0.048
-0.0835,-0.1285,0.042
-0.081,-0.1295,0.046
-0.079,-0.1305,0.046
-0.085,-0.131,0.046
-0.085,-0.133,0.0505
-0.0825,-0.132,0.051
-0.081,-0.1325,0.05
-0.078,-0.133,0.047
-0.0775,-0.132,0.042
-0.076,-0.1335,0.0405
-0.0745,-0.1345,0.043
-0.075,-0.134,0.043
-0.074,-0.134,0.043
-0.0765,-0.137,0.0415
-0.081,-0.139,0.039
-0.081,-0.1385,0.036
-0.0815,-0.139,0.0335
-0.08,-0.1395,0.036
-0.078,-0.1415,0.0375
-0.0765,-0.1405,0.0395
-0.078,-0.142,0.036
-0.0775,-0.143,0.036
-0.0735,-0.142,0.038
-0.0715,-0.1435,0.038
-0.071,-0.1425,0.039
-0.0705,-0.1425,0.0405
-0.069,-0.1435,0.0385
-0.0715,-0.1435,0.0335
-0.069,-0.143,0.033
-0.066,-0.1425,0.03
-0.067,-0.1435,0.0315
-0.0705,-0.145,0.028
-0.0745,-0.143,0.0275
-0.0715,-0.1425,0.03
-0.07,-0.1435,0.0265
-0.072,-0.145,0.026
-0.075,-0.146,0.023
-0.0745,-0.1445,0.025
-0.0745,-0.1435,0.0275
-0.073,-0.143,0.0305
-0.074,-0.146,0.0305
-0.078,-0.1455,0.028
-0.074,-0.144,0.027
-0.0705,-0.143,0.0275
-0.0735,-0.144,0.0285
-0.0745,-0.147,0.024
-0.075,-0.147,0.023
-0.076,-0.147,0.0255
-0.0745,-0.1465,0.0235
-0.0725,-0.145,0.025
-0.074,-0.1455,0.027
-0.075,-0.145,0.024
-0.0755,-0.147,0.0185
-0.0805,-0.149,0.0175
-0.078,-0.1505,0.0195
-0.0745,-0.1515,0.018
-0.075,-0.1505,0.0165
-0.079,-0.152,0.0195
-0.084,-0.153,0.0245
-0.083,-0.1515,0.024
-0.0845,-0.1525,0.024
-0.082,-0.1545,0.023
-0.0805,-0.1555,0.02
-0.0815,-0.1545,0.0235
-0.0765,-0.1545,0.027
-0.0775,-0.154,0.026
-0.081,-0.1535,0.027
-0.0775,-0.1565,0.0275
-0.076,-0.1565,0.026
-0.079,-0.158,0.0265
-0.082,-0.1585,0.027
-0.08,-0.156,0.026
-0.077,-0.1555,0.028
-0.079,-0.156,0.029
-0.077,-0.159,0.0245
-0.077,-0.157,0.025
-0.077,-0.1565,0.0255
-0.081,-0.164,0.025
-0.085,-0.165,0.027
-0.0855,-0.1625,0.028
-0.0865,-0.1635,0.027
-0.083,-0.1635,0.0235
-0.0835,-0.163,0.0225
-0.085,-0.1615,0.0205
-0.0845,-0.162,0.022
-0.0855,-0.162,0.031
-0.0895,-0.163,0.0335
-0.091,-0.166,0.0285
-0.0865,-0.1615,0.0265
-0.085,-0.1595,0.025
-0.087,-0.159,0.023
-0.0845,-0.156,0.0255
-0.0845,-0.1565,0.0265
-0.088,-0.1605,0.026
-0.089,-0.163,0.024
-0.0905,-0.1615,0.0205
-0.0915,-0.163,0.0185
-0.0925,-0.1645,0.015
-0.096,-0.165,0.021
-0.0955,-0.166,0.024
-0.093,-0.165,0.024
-0.0925,-0.166,0.027
-0.095,-0.166,0.0255
-0.0955,-0.1665,0.028
-0.098,-0.1675,0.027
-0.0985,-0.1665,0.0255
-0.096,-0.168,0.03
-0.094,-0.1685,0.0295
-0.0885,-0.168,0.0265
-0.09,-0.1655,0.0215
-0.088,-0.1655,0.02
-0.083,-0.164,0.0205
-0.0815,-0.1635,0.0205
-0.08,-0.1645,0.0265
-0.085,-0.165,0.023
-0.092,-0.1685,0.0145
-0.0995,-0.1705,0.0115
-0.101,-0.1695,0.0135
-0.0975,-0.169,0.018
-0.0945,-0.168,0.0185
-0.0915,-0.1685,0.02
-0.0945,-0.1695,0.0185
-0.0995,-0.1705,0.015
-0.098,-0.172,0.017
-0.094,-0.173,0.0175
-0.094,-0.1735,0.018
-0.0975,-0.173,0.019
-0.0965,-0.1735,0.017
-0.091,-0.1745,0.02
-0.088,-0.173,0.0245
-0.087,-0.1735,0.0225
-0.0895,-0.174,0.018
-0.0925,-0.175,0.0175
-0.0945,-0.177,0.0175
