i,vx,vy
0.124,0.231,0.2
0.1235,0.2285,0.1965
0.127,0.2275,0.1955
0.1175,0.2205,0.196
0.1105,0.214,0.196
0.1125,0.209,0.191
0.111,0.2025,0.185
0.104,0.1955,0.1805
0.099,0.1915,0.182
0.097,0.186,0.1795
0.0895,0.1805,0.173
0.088,0.1755,0.171
0.0885,0.1685,0.166
0.084,0.162,0.1645
0.076,0.1545,0.1605
0.068,0.1455,0.1545
0.0685,0.14,0.1555
0.0645,0.1335,0.153
0.0565,0.1245,0.144
0.0495,0.1175,0.1365
0.043,0.1095,0.1335
0.036,0.102,0.1285
0.031,0.096,0.126
0.0305,0.09,0.1245
0.0325,0.085,0.12
0.031,0.078,0.1195
0.0205,0.0705,0.1145
0.014,0.0635,0.112
0.0075,0.057,0.1115
0.0035,0.0525,0.1025
0.002,0.047,0.098
-0.0045,0.042,0.093
-0.0075,0.036,0.084
-0.0145,0.028,0.082
-0.016,0.0235,0.079
-0.0135,0.018,0.0765
-0.022,0.011,0.078
-0.031,0.006,0.075
-0.032,-0.001,0.068
-0.0325,-0.0055,0.063
-0.037,-0.01,0.062
-0.0375,-0.014,0.0615
-0.0425,-0.0165,0.0545
-0.0465,-0.02,0.0535
-0.0415,-0.023,0.058
-0.041,-0.026,0.057
-0.0445,-0.031,0.054
-0.0475,-0.036,0.0555
-0.0505,-0.0395,0.0605
-0.052,-0.0395,0.0525
-0.0515,-0.0425,0.046
-0.05,-0.048,0.042
-0.055,-0.052,0.0365
-0.0585,-0.056,0.036
-0.056,-0.056,0.0335
-0.055,-0.0565,0.029
-0.0595,-0.0585,0.028
-0.065,-0.061,0.03
-0.0655,-0.065,0.028
-0.0645,-0.068,0.027
-0.0615,-0.07,0.0225
-0.0645,-0.07,0.022
-0.0725,-0.0725,0.0215
-0.073,-0.074,0.0165
-0.074,-0.075,0.019
-0.0795,-0.0765,0.0195
-0.0755,-0.0785,0.0215
-0.0705,-0.0795,0.0265
-0.0705,-0.0795,0.0295
-0.069,-0.0785,0.027
-0.0685,-0.0785,0.023
-0.067,-0.08,0.0195
-0.069,-0.081,0.014
-0.0685,-0.0815,0.014
-0.0665,-0.079,0.0145
-0.075,-0.081,0.0075
-0.073,-0.0825,0.009
-0.07,-0.082,0.018
-0.07,-0.0835,0.0215
-0.0735,-0.084,0.02
-0.079,-0.087,0.0175
-0.078,-0.086,0.0195
-0.079,-0.0845,0.022
-0.075,-0.086,0.024
-0.0725,-0.0855,0.0225
-0.072,-0.086,0.0145
-0.07,-0.0865,0.009
-0.077,-0.0865,0.008
-0.0795,-0.088,0.0115
-0.0805,-0.0875,0.0105
-0.079,-0.0855,0.004
-0.0765,-0.0855,-0.0015
-0.08,-0.086,-0.0035
-0.082,-0.0895,0.001
-0.0835,-0.091,0.0005
-0.0785,-0.0885,0.0015
-0.073,-0.0845,0.008
-0.0715,-0.085,0.0155
-0.074,-0.0865,0.021
-0.083,-0.088,0.017
-0.086,-0.0895,0.015
-0.0815,-0.086,0.0175
-0.0825,-0.085,0.016
-0.0835,-0.0845,0.0175
-0.087,-0.085,0.017
-0.088,-0.087,0.0175
-0.079,-0.0845,0.02
-0.077,-0.0835,0.0155
-0.0775,-0.083,0.016
-0.0745,-0.0815,0.015
-0.075,-0.0815,0.0105
-0.0735,-0.081,0.009
-0.0765,-0.0825,0.012
-0.0785,-0.082,0.014
-0.077,-0.0815,0.0105
-0.0785,-0.083,0.0145
-0.0805,-0.0835,0.0215
-0.0795,-0.0825,0.0235
-0.075,-0.0795,0.0205
-0.0755,-0.081,0.016
-0.0755,-0.083,0.017
-0.0775,-0.0835,0.0195
-0.082,-0.0855,0.0215
-0.0795,-0.0845,0.0305
-0.079,-0.0825,0.0355
-0.074,-0.0825,0.0305
-0.075,-0.082,0.025
-0.078,-0.0835,0.024
-0.072,-0.083,0.0305
-0.074,-0.084,0.031
-0.0765,-0.0855,0.028
-0.077,-0.076,0.0235
-0.075,-0.077,0.0205
-0.0745,-0.082,0.023
-0.0785,-0.0805,0.0235
-0.082,-0.0825,0.0205
-0.0805,-0.0815,0.0195
-0.0785,-0.081,0.0225
-0.077,-0.0805,0.0195
-0.075,-0.0805,0.0235
-0.0745,-0.0805,0.0325
-0.0755,-0.0815,0.0355
-0.08,-0.0825,0.036
-0.0795,-0.08,0.034
-0.077,-0.079,0.0295
-0.076,-0.0785,0.026
-0.0765,-0.0785,0.0265
-0.079,-0.0795,0.027
-0.079,-0.0795,0.0295
-0.079,-0.0775,0.0315
-0.077,-0.0765,0.0295
-0.074,-0.0775,0.025
-0.0715,-0.078,0.03
-0.072,-0.0785,0.033
-0.072,-0.0785,0.0295
-0.072,-0.0785,0.035
-0.0745,-0.077,0.0395
-0.0735,-0.078,0.0335
-0.073,-0.078,0.0295
-0.075,-0.079,0.0315
-0.0755,-0.0815,0.0275
-0.073,-0.0805,0.03
-0.0765,-0.081,0.0325
-0.078,-0.0795,0.029
-0.0725,-0.0785,0.0285
-0.0725,-0.0785,0.0275
-0.0735,-0.08,0.0275
-0.077,-0.0825,0.024
-0.0785,-0.083,0.025
-0.0765,-0.0825,0.0265
-0.0745,-0.0815,0.0255
-0.0765,-0.0825,0.0265
-0.0815,-0.084,0.0255
-0.0815,-0.084,0.0265
-0.079,-0.0825,0.0265
-0.079,-0.0835,0.0275
-0.0815,-0.085,0.029
-0.08,-0.085,0.0305
-0.077,-0.084,0.0325
-0.0775,-0.0835,0.034
-0.0765,-0.086,0.035
-0.0745,-0.0845,0.0345
-0.0735,-0.084,0.0335
-0.0735,-0.083,0.0295
-0.0725,-0.0815,0.0285
-0.071,-0.0825,0.0305
-0.074,-0.083,0.0285
-0.0745,-0.0835,0.0315
-0.076,-0.0825,0.04
-0.076,-0.0835,0.039
-0.0755,-0.0825,0.035
-0.0815,-0.0815,0.029
-0.081,-0.083,0.0235
-0.0775,-0.0835,0.0295
-0.076,-0.083,0.0315
-0.077,-0.0815,0.029
-0.0775,-0.0825,0.028
-0.073,-0.082,0.033
-0.0715,-0.081,0.034
-0.073,-0.0825,0.033
-0.075,-0.0835,0.0305
-0.0765,-0.086,0.0285
-0.079,-0.087,0.0335
-0.0745,-0.0845,0.03
-0.072,-0.0835,0.031
-0.078,-0.0855,0.0295
-0.076,-0.0865,0.0265
-0.073,-0.0855,0.0265
-0.072,-0.0855,0.029
-0.073,-0.0865,0.034
-0.071,-0.088,0.035
-0.075,-0.0895,0.0325
-0.08,-0.091,0.0265
-0.079,-0.092,0.025
-0.084,-0.0915,0.0245
-0.0865,-0.089,0.023
-0.084,-0.089,0.021
-0.0805,-0.089,0.0185
-0.08,-0.0895,0.0175
-0.079,-0.091,0.0185
-0.0805,-0.093,0.021
-0.0835,-0.095,0.0235
-0.085,-0.094,0.027
-0.083,-0.094,0.0245
-0.0835,-0.094,0.021
-0.089,-0.0945,0.0195
-0.089,-0.097,0.0205
-0.0875,-0.0965,0.024
-0.089,-0.0965,0.025
-0.09,-0.0975,0.0195
-0.09,-0.0985,0.016
-0.0905,-0.0985,0.017
-0.089,-0.0975,0.0145
-0.0895,-0.0995,0.0165
-0.0885,-0.1,0.018
-0.0805,-0.098,0.023
-0.0775,-0.0985,0.026
-0.079,-0.098,0.02
-0.0835,-0.1,0.0175
-0.09,-0.102,0.018
-0.088,-0.1015,0.0235
-0.0865,-0.103,0.026
-0.088,-0.103,0.0255
-0.0845,-0.1025,0.0255
-0.082,-0.101,0.026
-0.083,-0.103,0.0265
-0.0905,-0.106,0.0205
-0.0975,-0.1075,0.0155
-0.0935,-0.106,0.017
-0.089,-0.104,0.016
-0.087,-0.1025,0.0155
-0.0835,-0.103,0.0185
-0.084,-0.1035,0.0155
-0.0815,-0.103,0.017
-0.081,-0.104,0.0185
-0.0865,-0.104,0.014
-0.086,-0.1045,0.0165
-0.086,-0.104,0.02
-0.086,-0.105,0.019
-0.088,-0.106,0.0175
-0.093,-0.106,0.013
-0.0955,-0.109,0.0125
-0.0965,-0.108,0.015
-0.0905,-0.105,0.012
-0.0865,-0.1055,0.0115
-0.09,-0.107,0.011
-0.091,-0.1095,0.013
-0.09,-0.1095,0.0145
-0.0875,-0.105,0.014
-0.082,-0.1045,0.0165
-0.086,-0.1055,0.0135
-0.0895,-0.106,0.01
-0.089,-0.107,0.008
-0.097,-0.111,0.0055
-0.095,-0.1125,0.005
-0.0885,-0.1065,0.0045
-0.0875,-0.1055,0.0045
-0.0875,-0.107,0.0065
-0.089,-0.107,0.009
-0.086,-0.108,0.008
-0.082,-0.107,0.0105
-0.0885,-0.109,0.015
-0.091,-0.109,0.017
-0.0905,-0.107,0.013
-0.093,-0.108,0.013
-0.093,-0.109,0.015
-0.0915,-0.108,0.0085
-0.0885,-0.1075,0.008
-0.092,-0.1065,0.015
-0.098,-0.107,0.015
-0.0955,-0.1065,0.009
-0.088,-0.1045,0.0025
-0.0845,-0.105,0.0005
-0.087,-0.1055,0.0015
-0.0875,-0.1065,0.0055
-0.0845,-0.107,0.0075
-0.0835,-0.1065,0.006
-0.0835,-0.1065,0.0105
-0.0845,-0.106,0.0105
-0.0875,-0.107,0.008
-0.0855,-0.1075,0.011
-0.0865,-0.109,0.016
-0.093,-0.1085,0.018
-0.091,-0.107,0.0135
-0.089,-0.108,0.0105
-0.088,-0.106,0.003
-0.086,-0.1055,-0.0025
-0.084,-0.105,-0.001
-0.087,-0.106,-0.0035
-0.09,-0.1065,-0.005
-0.0855,-0.1035,-0.003
-0.086,-0.1045,-0.0045
-0.0865,-0.106,-0.0035
-0.0875,-0.109,-0.001
-0.0865,-0.1105,0.0
-0.0885,-0.1095,-0.0005
-0.095,-0.11,-0.003
-0.092,-0.1105,-0.0075
-0.0955,-0.11,-0.0105
-0.097,-0.108,-0.0075
-0.09,-0.1075,-0.006
-0.0845,-0.106,0.0015
-0.079,-0.105,0.007
-0.0815,-0.105,0.0025
-0.09,-0.1055,0.0
-0.093,-0.1065,0.002
-0.092,-0.108,0.0
-0.094,-0.1075,-0.0005
-0.0895,-0.1065,0.007
-0.088,-0.106,0.007
-0.0895,-0.105,0.006
-0.088,-0.105,0.0085
-0.089,-0.1045,0.01
-0.0895,-0.1075,0.0115
-0.0895,-0.1085,0.0115
-0.088,-0.1065,0.013
-0.088,-0.106,0.0125
-0.0895,-0.105,0.007
-0.09,-0.1055,0.002
-0.09,-0.106,-0.003
-0.089,-0.105,-0.004
-0.0885,-0.105,0.0
-0.089,-0.105,-0.001
-0.0885,-0.105,0.0015
-0.087,-0.1035,0.0065
-0.089,-0.104,0.005
-0.089,-0.1065,-0.0025
-0.0895,-0.107,-0.002
-0.0925,-0.1075,0.001
-0.0925,-0.1065,-0.0015
-0.0925,-0.106,-0.0055
-0.092,-0.106,-0.0055
-0.0875,-0.1065,-0.002
-0.0915,-0.108,0.001
-0.0945,-0.11,0.0015
-0.088,-0.109,0.0025
-0.082,-0.106,0.009
-0.082,-0.105,0.007
-0.0855,-0.1065,0.002
-0.0865,-0.1075,0.0025
-0.0885,-0.1085,0.0015
-0.086,-0.107,0.0015
-0.0845,-0.1065,0.0005
-0.0865,-0.1075,0.0015
-0.085,-0.1065,0.0085
-0.0805,-0.107,0.0155
-0.081,-0.107,0.012
-0.09,-0.11,0.0055
-0.095,-0.11,0.008
-0.0915,-0.1075,0.013
-0.0885,-0.108,0.0125
-0.087,-0.1075,0.008
-0.0845,-0.1065,0.008
-0.0835,-0.1055,0.012
-0.082,-0.1065,0.0065
-0.086,-0.108,0.0
-0.0895,-0.1075,0.0005
-0.0885,-0.1075,-0.006
-0.088,-0.1075,-0.007
-0.0875,-0.107,-0.0055
-0.0915,-0.107,-0.0075
-0.09,-0.107,-0.0045
-0.088,-0.108,-0.004
-0.09,-0.107,-0.003
-0.087,-0.1055,0.0
-0.09,-0.1065,-0.0005
-0.0895,-0.108,0.0035
-0.0885,-0.1075,0.005
-0.0895,-0.108,0.0045
-0.088,-0.107,0.0055
-0.09,-0.106,0.0005
-0.09,-0.106,-0.0035
-0.094,-0.107,-0.001
-0.094,-0.108,0.003
-0.089,-0.1045,0.0035
-0.0885,-0.105,-0.0005
-0.0855,-0.105,0.002
-0.0835,-0.104,0.0065
-0.0845,-0.1055,0.0025
-0.085,-0.104,0.0015
-0.085,-0.1045,0.0055
-0.088,-0.1085,0.011
-0.089,-0.11,0.0135
-0.084,-0.108,0.013
-0.084,-0.104,0.0145
-0.085,-0.1045,0.0165
-0.086,-0.107,0.0145
-0.0895,-0.107,0.013
-0.091,-0.106,0.013
-0.0895,-0.104,0.0075
-0.089,-0.105,0.008
-0.0925,-0.107,0.003
-0.091,-0.1055,-0.003
-0.087,-0.1055,-0.006
-0.09,-0.107,-0.0075
-0.09,-0.1065,-0.005
-0.086,-0.105,-0.0065
-0.091,-0.105,-0.004
-0.0935,-0.1055,-0.004
-0.0915,-0.1065,-0.0045
-0.0905,-0.107,-0.0045
-0.0885,-0.1065,0.01
-0.091,-0.1055,0.02
-0.0925,-0.1035,0.012
-0.0925,-0.1045,0.013
-0.0935,-0.106,0.007
-0.092,-0.104,-0.004
-0.087,-0.103,-0.002
-0.0865,-0.1025,0.0045
-0.0895,-0.1035,0.003
-0.088,-0.1035,0.0015
-0.088,-0.1045,-0.002
-0.089,-0.1055,-0.0075
-0.091,-0.1055,-0.0035
-0.094,-0.108,0.003
-0.0905,-0.106,0.0045
-0.0855,-0.104,0.0065
-0.0905,-0.105,0.006
-0.093,-0.1065,0.001
-0.087,-0.107,-0.002
-0.085,-0.105,-0.001
-0.0855,-0.105,-0.0005
-0.0865,-0.1065,0.0025
-0.0855,-0.1045,0.0085
-0.0825,-0.1045,0.0115
-0.085,-0.1075,0.01
-0.0855,-0.108,0.009
-0.088,-0.108,0.0065
-0.093,-0.109,0.0045
-0.091,-0.1085,0.004
-0.0905,-0.108,0.004
-0.095,-0.109,0.0055
-0.096,-0.1085,0.009
-0.093,-0.107,0.0125
-0.093,-0.108,0.012
-0.0925,-0.1085,0.0125
-0.095,-0.1075,0.012
-0.096,-0.1095,0.012
-0.091,-0.1095,0.012
-0.088,-0.108,0.0085
-0.085,-0.1055,0.0125
-0.0875,-0.1085,0.0155
-0.0855,-0.1085,0.015
-0.082,-0.1045,0.0145
-0.082,-0.1055,0.0135
-0.082,-0.1055,0.014
-0.084,-0.106,0.0125
-0.0875,-0.108,0.0135
-0.092,-0.111,0.0195
-0.093,-0.111,0.0205
-0.099,-0.112,0.0215
-0.101,-0.1105,0.021
-0.098,-0.1095,0.0115
-0.096,-0.1105,0.004
-0.0925,-0.1065,0.0035
-0.0855,-0.105,0.0045
-0.0825,-0.1045,0.0085
-0.082,-0.1055,0.0125
-0.078,-0.1035,0.013
-0.074,-0.1015,0.0095
-0.0695,-0.1015,0.008
-0.0715,-0.1005,0.0085
-0.0715,-0.1015,0.013
-0.0655,-0.098,0.0165
-0.0615,-0.094,0.018
-0.0615,-0.092,0.0195
-0.057,-0.0875,0.023
-0.048,-0.0825,0.0325
-0.055,-0.083,0.0405
-0.061,-0.0865,0.0455
-0.054,-0.083,0.0495
-0.053,-0.079,0.0575
-0.056,-0.076,0.057
-0.0565,-0.072,0.053
-0.048,-0.068,0.057
-0.0375,-0.0675,0.051
-0.0315,-0.059,0.051
-0.022,-0.048,0.0535
-0.0195,-0.049,0.048
-0.0175,-0.0475,0.047
-0.019,-0.046,0.045
-0.0265,-0.0465,0.049
-0.0275,-0.0465,0.051
-0.0255,-0.043,0.0525
-0.025,-0.041,0.0605
-0.03,-0.0445,0.067
-0.0365,-0.044,0.0675
-0.0355,-0.0445,0.0645
-0.0325,-0.043,0.064
-0.0315,-0.0405,0.0665
-0.031,-0.039,0.0605
-0.029,-0.038,0.05
-0.028,-0.0385,0.045
-0.028,-0.0375,0.0435
-0.0275,-0.037,0.046
-0.0235,-0.035,0.0455
-0.02,-0.0345,0.037
-0.0245,-0.0365,0.0285
-0.022,-0.038,0.0165
-0.0235,-0.042,0.008
-0.03,-0.0465,0.0045
-0.03,-0.049,0.0085
-0.032,-0.0505,0.014
-0.0355,-0.054,0.011
-0.042,-0.056,0.016
-0.0455,-0.0585,0.0235
-0.045,-0.058,0.027
-0.0445,-0.0565,0.0285
-0.0455,-0.0605,0.028
-0.0495,-0.064,0.03
-0.0505,-0.068,0.033
-0.052,-0.0695,0.033
-0.052,-0.07,0.0285
-0.0535,-0.074,0.026
-0.054,-0.076,0.025
-0.0525,-0.08,0.0225
-0.058,-0.083,0.0175
-0.0635,-0.0865,0.015
-0.0625,-0.0895,0.0145
-0.062,-0.0895,0.0115
-0.059,-0.091,0.021
-0.058,-0.09,0.027
-0.0585,-0.086,0.021
-0.051,-0.081,0.019
-0.0435,-0.0775,0.0185
-0.0355,-0.0735,0.0185
-0.0315,-0.0685,0.0175
-0.029,-0.066,0.02
-0.0265,-0.065,0.024
-0.028,-0.0635,0.026
-0.0265,-0.0645,0.023
-0.032,-0.066,0.0155
-0.035,-0.066,0.014
-0.033,-0.069,0.0165
-0.035,-0.0725,0.021
-0.0345,-0.0735,0.0215
-0.0365,-0.0745,0.017
-0.041,-0.075,0.017
-0.0425,-0.0755,0.0155
-0.038,-0.073,0.0125
-0.037,-0.074,0.0115
-0.039,-0.0765,0.0105
-0.042,-0.0775,0.011
-0.047,-0.079,0.007
-0.0475,-0.082,-0.001
-0.052,-0.085,-0.003
-0.062,-0.0895,-0.006
-0.0695,-0.096,-0.01
-0.074,-0.103,-0.0065
-0.0825,-0.1105,-0.006
-0.092,-0.1165,-0.0075
-0.103,-0.122,-0.008
-0.109,-0.1245,-0.012
-0.1065,-0.126,-0.01
-0.101,-0.1265,-0.0105
-0.1005,-0.125,-0.01
-0.108,-0.1265,-0.006
-0.113,-0.1275,-0.0065
-0.1115,-0.1285,-0.01
-0.109,-0.1295,-0.0125
-0.106,-0.1275,-0.012
-0.11,-0.128,-0.0115
-0.113,-0.128,-0.012
-0.1105,-0.128,-0.015
-0.11,-0.1275,-0.015
-0.1105,-0.127,-0.0185
-0.112,-0.1295,-0.025
-0.11,-0.129,-0.021
-0.1065,-0.127,-0.0145
-0.1075,-0.1275,-0.0125
-0.11,-0.1285,-0.0135
-0.1085,-0.1285,-0.0145
-0.1065,-0.129,-0.019
-0.1055,-0.13,-0.016
-0.108,-0.1305,-0.014
-0.1095,-0.129,-0.0155
-0.1095,-0.131,-0.013
-0.111,-0.1315,-0.0135
-0.106,-0.129,-0.01
-0.106,-0.13,-0.012
-0.1105,-0.13,-0.013
-0.109,-0.129,-0.007
-0.1095,-0.129,-0.004
-0.1075,-0.1265,-0.0035
-0.1055,-0.126,-0.0035
-0.108,-0.1265,-0.005
-0.11,-0.129,-0.0095
-0.11,-0.13,-0.014
-0.106,-0.1275,-0.0085
-0.1065,-0.1255,-0.002
-0.104,-0.1235,-0.0005
-0.103,-0.124,-0.0005
-0.102,-0.1255,-0.0015
-0.0995,-0.125,-0.003
-0.1035,-0.126,-0.0085
-0.1015,-0.126,-0.0075
-0.1055,-0.128,-0.008
-0.111,-0.128,-0.0115
-0.1135,-0.128,-0.008
-0.1095,-0.129,-0.01
-0.1025,-0.1255,-0.007
-0.1035,-0.125,-0.001
-0.108,-0.127,-0.0005
-0.113,-0.126,-0.0015
-0.1095,-0.1245,-0.0035
-0.109,-0.1255,-0.002
-0.111,-0.1265,-0.0005
-0.104,-0.124,-0.001
-0.097,-0.121,0.0025
-0.0995,-0.12,0.0065
-0.102,-0.12,0.005
-0.1005,-0.1195,0.0025
-0.1025,-0.121,0.004
-0.103,-0.121,0.0065
-0.104,-0.1225,0.0035
-0.1035,-0.125,-0.0005
-0.102,-0.122,0.0035
-0.102,-0.123,0.007
-0.105,-0.1255,0.0085
-0.1055,-0.128,0.007
-0.1035,-0.13,0.0055
-0.1135,-0.1345,0.009
-0.1195,-0.1385,0.0105
-0.1205,-0.1435,0.012
-0.1315,-0.153,0.008
-0.143,-0.1635,0.004
-0.1535,-0.1745,0.007
-0.167,-0.1885,0.008
-0.1825,-0.203,0.0155
-0.194,-0.212,0.021
-0.202,-0.2215,0.0195
-0.2075,-0.2315,0.019
-0.214,-0.2435,0.012
-0.218,-0.2575,0.0065
-0.2215,-0.2725,0.0
-0.2315,-0.291,-0.001
-0.232,-0.3005,-0.0095
-0.2265,-0.2985,-0.0145
-0.218,-0.2995,-0.0075
-0.214,-0.2945,-0.0035
-0.21,-0.2775,0.0125
-0.189,-0.2525,0.016
-0.166,-0.2195,0.0175
-0.1425,-0.179,0.031
-0.1065,-0.1275,0.036
-0.0625,-0.0705,0.0455
-0.0085,-0.008,0.06
0.047,0.0565,0.071
0.0955,0.124,0.0845
0.1475,0.1955,0.102
0.204,0.27,0.118
0.2615,0.3565,0.1485
0.3235,0.4595,0.204
0.3865,0.5605,0.2605
0.433,0.651,0.325
0.464,0.7375,0.395
0.495,0.823,0.472
0.5245,0.906,0.5645
0.5505,0.9785,0.636
0.572,1.046,0.6985
0.586,1.1135,0.7735
0.5925,1.1695,0.8465
0.6065,1.236,0.921
0.635,1.322,0.9845
0.6405,1.377,1.02
0.623,1.4065,1.052
0.607,1.422,1.0755
0.5775,1.3975,1.071
0.5345,1.334,1.042
0.491,1.248,0.97
0.4585,1.1555,0.8555
0.431,1.058,0.7515
0.402,0.979,0.675
0.369,0.908,0.6215
0.328,0.83,0.584
0.292,0.7665,0.546
0.254,0.6945,0.506
0.22,0.621,0.46
0.169,0.542,0.432
0.1055,0.4445,0.4075
0.061,0.348,0.386
0.022,0.261,0.376
-0.0115,0.178,0.3445
-0.0435,0.101,0.301
-0.0795,0.021,0.262
-0.123,-0.071,0.2235
-0.1495,-0.13,0.185
-0.15,-0.1505,0.1515
-0.153,-0.1685,0.109
-0.1535,-0.1895,0.0755
-0.1545,-0.213,0.047
-0.1555,-0.2295,0.0165
-0.148,-0.2385,-0.0065
-0.1425,-0.2465,-0.0345
-0.138,-0.2425,-0.05
-0.1275,-0.2325,-0.053
-0.1215,-0.226,-0.056
-0.1265,-0.219,-0.058
-0.122,-0.2095,-0.049
-0.1155,-0.199,-0.037
-0.1175,-0.189,-0.0235
-0.1165,-0.1785,-0.012
-0.114,-0.17,-0.01
-0.11,-0.1615,-0.002
-0.106,-0.152,0.0075
-0.1045,-0.1445,0.0165
-0.0985,-0.133,0.033
-0.096,-0.1225,0.0435
-0.091,-0.113,0.0575
-0.086,-0.104,0.071
-0.091,-0.102,0.066
-0.0925,-0.0995,0.0625
-0.09,-0.095,0.065
-0.0825,-0.0925,0.0675
-0.078,-0.0935,0.0675
-0.0785,-0.096,0.067
-0.0805,-0.094,0.0655
-0.083,-0.0935,0.069
-0.079,-0.094,0.071
-0.0785,-0.093,0.0675
-0.0785,-0.093,0.07
-0.0785,-0.094,0.0675
-0.0815,-0.0945,0.063
-0.082,-0.0945,0.0605
-0.0815,-0.0935,0.06
-0.0785,-0.0915,0.0605
-0.079,-0.093,0.0585
-0.082,-0.0945,0.057
-0.082,-0.0945,0.0585
-0.075,-0.092,0.066
-0.0725,-0.091,0.0705
-0.0755,-0.0925,0.0675
-0.076,-0.0925,0.0705
-0.0775,-0.0935,0.0695
-0.0795,-0.094,0.0645
-0.079,-0.0915,0.0615
-0.077,-0.09,0.059
-0.0745,-0.089,0.0605
-0.072,-0.088,0.0595
-0.0725,-0.0885,0.058
-0.072,-0.0885,0.0625
-0.0735,-0.087,0.0685
-0.0705,-0.085,0.071
-0.072,-0.0855,0.0675
-0.0765,-0.0845,0.0675
-0.073,-0.0815,0.074
-0.0705,-0.08,0.0745
-0.0675,-0.08,0.074
-0.0655,-0.08,0.0755
-0.063,-0.076,0.0775
-0.0625,-0.074,0.0755
-0.062,-0.075,0.073
-0.0615,-0.0745,0.0715
-0.0635,-0.074,0.068
-0.065,-0.0735,0.066
-0.0625,-0.073,0.064
-0.061,-0.073,0.064
-0.063,-0.074,0.065
-0.0605,-0.073,0.0655
-0.058,-0.072,0.059
-0.0575,-0.072,0.0595
-0.056,-0.071,0.0695
-0.0595,-0.072,0.072
-0.0585,-0.0695,0.0715
-0.0605,-0.068,0.0715
-0.0645,-0.069,0.069
-0.0595,-0.0685,0.0645
-0.057,-0.0665,0.0665
-0.0535,-0.0655,0.072
-0.0535,-0.066,0.076
-0.0535,-0.064,0.077
-0.054,-0.062,0.073
-0.0555,-0.0625,0.072
-0.0525,-0.063,0.073
-0.0495,-0.063,0.07
-0.0495,-0.0605,0.064
-0.052,-0.0605,0.067
-0.055,-0.0615,0.0675
-0.053,-0.0585,0.0685
-0.05,-0.0555,0.07
-0.0495,-0.057,0.0695
-0.0475,-0.056,0.074
-0.0475,-0.0535,0.0735
-0.0475,-0.0525,0.0735
-0.0495,-0.0505,0.0735
-0.0535,-0.0535,0.0735
-0.049,-0.0515,0.0765
-0.044,-0.048,0.0765
-0.046,-0.0505,0.077
-0.0485,-0.0505,0.0785
-0.0505,-0.05,0.0765
-0.052,-0.0495,0.0775
-0.0505,-0.048,0.0755
-0.046,-0.0455,0.073
-0.0425,-0.0445,0.0755
-0.0405,-0.044,0.074
-0.041,-0.044,0.074
-0.0385,-0.0415,0.074
-0.0345,-0.041,0.0755
-0.0325,-0.042,0.078
-0.03,-0.0385,0.0795
-0.0355,-0.037,0.0815
-0.0415,-0.037,0.086
-0.041,-0.036,0.091
-0.036,-0.034,0.0895
-0.03,-0.0315,0.0875
-0.0235,-0.028,0.091
-0.0255,-0.0275,0.0915
-0.028,-0.028,0.093
-0.0265,-0.0265,0.093
-0.029,-0.0245,0.0875
-0.027,-0.024,0.087
-0.02,-0.0215,0.0875
-0.0145,-0.0175,0.0915
-0.0145,-0.0165,0.093
-0.0125,-0.017,0.095
-0.0155,-0.0165,0.0975
-0.021,-0.016,0.097
-0.02,-0.018,0.1025
-0.0175,-0.013,0.1035
-0.0185,-0.0105,0.101
-0.015,-0.012,0.1035
-0.0085,-0.008,0.1115
-0.012,-0.007,0.1105
-0.008,-0.0045,0.1085
-0.008,-0.0035,0.1075
-0.0145,-0.0025,0.102
-0.0115,-0.0005,0.1035
-0.0075,0.0,0.106
-0.0065,0.0035,0.107
-0.007,0.0065,0.107
0.0,0.008,0.1085
0.0025,0.0125,0.1085
0.007,0.0165,0.1105
0.0095,0.017,0.1135
0.008,0.0185,0.11
0.016,0.021,0.111
0.015,0.023,0.117
0.0155,0.0265,0.118
0.0175,0.028,0.1165
0.019,0.03,0.119
0.0235,0.0345,0.119
0.0255,0.037,0.1195
0.0325,0.04,0.1215
0.031,0.0435,0.1245
0.029,0.045,0.128
0.0325,0.0475,0.1235
0.0385,0.0515,0.124
0.042,0.054,0.129
0.04,0.058,0.131
0.042,0.063,0.1305
0.0485,0.0655,0.1285
0.054,0.0685,0.133
0.053,0.0725,0.139
0.052,0.0755,0.141
0.059,0.0795,0.1395
0.0615,0.083,0.1415
0.059,0.083,0.1415
0.058,0.0865,0.142
0.0635,0.0905,0.1425
0.068,0.0915,0.144
0.067,0.0945,0.1525
0.0715,0.1005,0.158
0.0745,0.104,0.159
0.0755,0.1065,0.1615
0.078,0.111,0.162
0.0795,0.1155,0.163
0.0845,0.1205,0.164
0.087,0.124,0.1625
0.091,0.129,0.1665
0.096,0.134,0.17
0.0985,0.137,0.167
0.102,0.1405,0.1675
0.1005,0.144,0.1705
0.1015,0.1485,0.173
0.103,0.153,0.175
0.1045,0.157,0.1775
0.1105,0.1605,0.1795
0.113,0.1635,0.183
0.115,0.168,0.1835
0.1185,0.171,0.187
0.1185,0.1735,0.1915
0.1205,0.177,0.195
0.123,0.1805,0.2005
0.123,0.1815,0.2015
0.128,0.185,0.2025
0.128,0.1895,0.1995
0.1265,0.191,0.193
0.1335,0.194,0.192
0.1415,0.1985,0.199
0.1435,0.2015,0.2025
0.142,0.202,0.1985
0.143,0.205,0.196
0.144,0.2055,0.1955
0.1405,0.2035,0.2005
0.1365,0.2055,0.2
0.137,0.209,0.1985
0.139,0.213,0.2005
0.145,0.2155,0.205
0.1525,0.217,0.208
0.153,0.2185,0.21
0.149,0.219,0.2135
0.1485,0.221,0.2125
0.152,0.222,0.2145
0.151,0.223,0.214
0.15,0.223,0.213
0.152,0.223,0.2145
0.154,0.224,0.2165
0.1545,0.224,0.219
0.154,0.225,0.2195
0.1505,0.224,0.221
0.1545,0.2255,0.2225
0.154,0.226,0.2185
0.15,0.225,0.213
0.156,0.2245,0.213
0.153,0.223,0.2135
0.147,0.2215,0.2145
0.1475,0.2185,0.2205
0.146,0.2185,0.224
0.146,0.2185,0.2215
0.1465,0.2155,0.2185
0.1425,0.2125,0.2175
0.133,0.2095,0.218
0.1345,0.207,0.2185
0.139,0.207,0.218
0.1405,0.2055,0.219
0.14,0.201,0.217
0.1275,0.1955,0.203
0.118,0.1885,0.1965
0.1125,0.1825,0.1995
0.1105,0.1785,0.196
0.104,0.1735,0.1935
0.1095,0.1685,0.1945
0.1105,0.163,0.189
0.096,0.1555,0.186
0.0915,0.1485,0.184
0.088,0.143,0.179
0.0875,0.1365,0.1775
0.082,0.13,0.1725
0.076,0.123,0.168
0.0785,0.1175,0.1665
0.071,0.11,0.161
0.061,0.1005,0.16
0.058,0.0975,0.16
0.0605,0.0935,0.157
0.058,0.0855,0.1555
0.05,0.078,0.152
0.045,0.0705,0.151
0.0395,0.063,0.145
0.0325,0.056,0.1415
0.019,0.0485,0.138
0.016,0.0425,0.134
0.017,0.0355,0.1285
0.016,0.0275,0.118
0.013,0.0215,0.1125
0.003,0.017,0.1035
-0.0005,0.012,0.102
0.0005,0.006,0.1015
-0.0015,0.0015,0.0995
-0.006,-0.008,0.097
-0.0065,-0.013,0.091
-0.011,-0.0165,0.0885
-0.0205,-0.0245,0.0895
-0.0185,-0.026,0.089
-0.0165,-0.0305,0.083
-0.0215,-0.035,0.08
-0.0275,-0.04,0.0775
-0.0305,-0.046,0.0775
-0.0305,-0.05,0.0765
-0.031,-0.054,0.0715
-0.033,-0.0555,0.0695
-0.0375,-0.0585,0.067
-0.0405,-0.0635,0.0615
-0.043,-0.068,0.058
-0.0455,-0.071,0.0605
-0.044,-0.0715,0.06
-0.0445,-0.073,0.0555
-0.0445,-0.0775,0.0555
-0.045,-0.08,0.0575
-0.0475,-0.0805,0.0575
-0.0495,-0.084,0.057
-0.0545,-0.089,0.056
-0.059,-0.0905,0.055
-0.064,-0.0915,0.0535
-0.0665,-0.0945,0.0505
-0.07,-0.0965,0.048
-0.0685,-0.098,0.0425
-0.0645,-0.098,0.037
-0.065,-0.0985,0.0335
-0.063,-0.1015,0.033
-0.0625,-0.1045,0.031
-0.058,-0.1065,0.0335
-0.0595,-0.1075,0.0315
-0.0645,-0.107,0.0275
-0.065,-0.106,0.025
-0.0655,-0.1085,0.0235
-0.065,-0.1125,0.028
-0.064,-0.1115,0.028
-0.0625,-0.1105,0.0275
-0.065,-0.11,0.023
-0.069,-0.112,0.0235
-0.0725,-0.115,0.024
-0.0695,-0.114,0.0235
-0.068,-0.1135,0.022
-0.0685,-0.114,0.0205
-0.072,-0.116,0.0255
-0.0715,-0.117,0.0235
-0.069,-0.117,0.024
-0.0735,-0.117,0.025
-0.074,-0.1165,0.0235
-0.0735,-0.1155,0.022
-0.0705,-0.1145,0.02
-0.0725,-0.1145,0.0175
-0.0755,-0.1145,0.02
-0.07,-0.114,0.0235
-0.068,-0.112,0.0225
-0.068,-0.112,0.0235
-0.0665,-0.1115,0.0255
-0.0685,-0.112,0.0285
-0.07,-0.115,0.0275
-0.074,-0.115,0.0275
-0.0775,-0.114,0.028
-0.079,-0.1155,0.0265
-0.08,-0.1155,0.026
-0.072,-0.112,0.028
-0.07,-0.1115,0.0295
-0.074,-0.1145,0.026
-0.071,-0.1145,0.0225
-0.068,-0.112,0.0235
-0.071,-0.112,0.03
-0.071,-0.112,0.0345
-0.0695,-0.112,0.035
-0.067,-0.112,0.0365
-0.064,-0.111,0.039
-0.067,-0.1125,0.033
-0.0655,-0.111,0.0305
-0.0685,-0.11,0.032
-0.0695,-0.1105,0.0295
-0.071,-0.1105,0.0275
-0.075,-0.111,0.027
-0.075,-0.108,0.027
-0.08,-0.1085,0.0315
-0.08,-0.1125,0.037
-0.083,-0.112,0.0325
-0.0855,-0.111,0.032
-0.0805,-0.1095,0.0345
-0.077,-0.109,0.0375
-0.075,-0.1105,0.041
-0.0725,-0.109,0.038
-0.069,-0.108,0.0395
-0.0705,-0.1085,0.0435
-0.072,-0.107,0.0405
-0.0715,-0.1065,0.038
-0.0665,-0.1085,0.0415
-0.0695,-0.1085,0.0425
-0.071,-0.1065,0.0365
-0.069,-0.1055,0.0365
-0.072,-0.104,0.035
-0.0735,-0.1035,0.0295
-0.074,-0.1045,0.0275
-0.0695,-0.104,0.024
-0.065,-0.1015,0.0255
-0.065,-0.1015,0.0305
-0.07,-0.102,0.034
-0.0685,-0.099,0.037
-0.0655,-0.098,0.035
-0.0685,-0.0995,0.0345
-0.0675,-0.1005,0.036
-0.0635,-0.1005,0.036
-0.064,-0.0995,0.0345
-0.0685,-0.101,0.0285
-0.068,-0.1,0.031
-0.0725,-0.1005,0.0355
-0.074,-0.1025,0.041
-0.0735,-0.103,0.048
-0.0745,-0.1055,0.0475
-0.0705,-0.1035,0.047
-0.0755,-0.1055,0.0445
-0.0765,-0.108,0.044
-0.068,-0.1045,0.044
-0.064,-0.1025,0.0395
-0.058,-0.1015,0.038
-0.0595,-0.1,0.039
-0.0655,-0.1005,0.0415
-0.063,-0.1005,0.038
-0.066,-0.101,0.0355
-0.068,-0.1005,0.038
-0.065,-0.1,0.036
-0.062,-0.1015,0.0345
-0.0665,-0.0995,0.0365
-0.077,-0.1015,0.036
-0.074,-0.103,0.0315
-0.0705,-0.102,0.0325
-0.066,-0.101,0.0325
-0.0645,-0.0995,0.0315
-0.0665,-0.101,0.032
-0.0645,-0.1015,0.032
-0.067,-0.103,0.033
-0.066,-0.101,0.032
-0.0675,-0.102,0.0335
-0.067,-0.103,0.036
-0.062,-0.099,0.0375
-0.069,-0.103,0.038
-0.0755,-0.104,0.039
-0.0775,-0.1055,0.0405
-0.0805,-0.107,0.0405
-0.0765,-0.104,0.044
-0.0665,-0.102,0.048
-0.0595,-0.102,0.0515
-0.063,-0.103,0.048
-0.0705,-0.1035,0.0445
-0.072,-0.1055,0.045
-0.0685,-0.1065,0.0405
-0.0685,-0.1055,0.037
-0.068,-0.1045,0.038
-0.0665,-0.1055,0.0395
-0.0725,-0.108,0.035
-0.0745,-0.11,0.035
-0.075,-0.1075,0.034
-0.07,-0.107,0.025
-0.065,-0.108,0.0225
-0.071,-0.1075,0.0255
-0.07,-0.1095,0.0345
-0.0715,-0.109,0.0405
-0.075,-0.1095,0.04
-0.077,-0.11,0.0455
-0.0765,-0.109,0.046
-0.0745,-0.111,0.041
-0.075,-0.113,0.039
-0.079,-0.1145,0.0385
-0.0825,-0.1155,0.036
-0.0815,-0.114,0.0375
-0.078,-0.114,0.038
-0.077,-0.1155,0.03
-0.0775,-0.116,0.033
-0.0755,-0.113,0.0345
-0.069,-0.111,0.0355
-0.0725,-0.1135,0.039
-0.0795,-0.1145,0.0345
-0.0735,-0.112,0.036
-0.0745,-0.115,0.03
-0.0815,-0.116,0.027
-0.0785,-0.115,0.0335
-0.076,-0.116,0.0295
-0.076,-0.116,0.0245
-0.0775,-0.118,0.027
-0.085,-0.12,0.0235
-0.083,-0.118,0.0245
-0.079,-0.119,0.03
-0.086,-0.122,0.033
-0.085,-0.1215,0.039
-0.0815,-0.1185,0.0375
-0.082,-0.1185,0.033
-0.0815,-0.12,0.0285
-0.077,-0.121,0.027
-0.072,-0.119,0.0255
-0.0725,-0.1175,0.0195
-0.072,-0.1175,0.0225
-0.07,-0.118,0.0275
-0.071,-0.118,0.0285
-0.075,-0.1175,0.028
-0.0745,-0.121,0.0265
-0.074,-0.1205,0.0265
-0.0725,-0.118,0.0305
-0.0775,-0.1195,0.029
-0.0785,-0.1185,0.029
-0.0795,-0.123,0.025
-0.0835,-0.127,0.018
-0.0835,-0.1265,0.0215
-0.089,-0.1275,0.024
-0.082,-0.123,0.0295
-0.0775,-0.121,0.026
-0.076,-0.121,0.022
-0.0715,-0.12,0.025
-0.075,-0.1205,0.024
-0.0765,-0.1215,0.022
-0.0745,-0.121,0.0225
-0.077,-0.12,0.024
-0.078,-0.121,0.022
-0.0775,-0.1225,0.021
-0.0815,-0.124,0.0185
-0.0845,-0.1255,0.02
-0.086,-0.127,0.02
-0.0815,-0.125,0.0195
-0.079,-0.126,0.0175
-0.0805,-0.126,0.0205
-0.0835,-0.1275,0.0295
-0.0855,-0.1285,0.0245
-0.083,-0.126,0.025
-0.081,-0.1275,0.0295
-0.08,-0.1265,0.0225
-0.0855,-0.1265,0.0205
-0.084,-0.126,0.018
-0.086,-0.1275,0.0175
-0.085,-0.1285,0.018
-0.081,-0.127,0.015
-0.0915,-0.13,0.012
-0.0885,-0.1285,0.0085
-0.0835,-0.1255,0.0115
-0.089,-0.127,0.0065
-0.087,-0.126,0.008
-0.083,-0.126,0.0185
-0.079,-0.1265,0.018
-0.074,-0.1245,0.019
-0.073,-0.124,0.0205
-0.08,-0.125,0.017
-0.0835,-0.125,0.015
-0.077,-0.124,0.014
-0.081,-0.1235,0.011
-0.086,-0.124,0.009
-0.08,-0.122,0.01
-0.076,-0.1205,0.0135
-0.0835,-0.1235,0.012
-0.0885,-0.125,0.0055
-0.086,-0.1245,0.004
-0.085,-0.126,0.0015
-0.0815,-0.1265,0.005
-0.0835,-0.126,0.01
-0.0845,-0.1255,0.005
-0.0875,-0.1255,-0.001
-0.0835,-0.125,0.0005
-0.0795,-0.1285,0.011
-0.085,-0.1305,0.0125
-0.0845,-0.129,0.007
-0.0865,-0.129,0.009
-0.0865,-0.128,0.012
-0.086,-0.1285,0.013
-0.0855,-0.128,0.0105
-0.0865,-0.128,0.0075
-0.092,-0.13,0.008
-0.092,-0.1295,0.011
-0.0865,-0.1295,0.012
-0.083,-0.1295,0.01
-0.082,-0.129,0.0105
-0.082,-0.129,0.011
-0.079,-0.1295,0.0105
-0.083,-0.1305,0.0075
-0.0855,-0.132,0.0085
-0.08,-0.1295,0.0075
-0.0875,-0.1305,-0.001
-0.0925,-0.1325,-0.003
-0.0875,-0.13,-0.0065
-0.0855,-0.1285,-0.011
-0.086,-0.1275,-0.0065
-0.083,-0.126,0.0
-0.0825,-0.1265,0.002
-0.083,-0.127,0.001
-0.081,-0.127,-0.0065
-0.085,-0.1315,-0.0055
-0.092,-0.1285,0.003
-0.0915,-0.124,0.005
-0.0865,-0.122,0.0085
-0.085,-0.1215,0.0075
-0.0795,-0.1225,0.0085
-0.08,-0.1215,0.0055
-0.0805,-0.121,0.001
-0.0805,-0.1195,0.0025
-0.0795,-0.12,0.0065
-0.0785,-0.1205,0.0135
-0.083,-0.118,0.011
-0.0825,-0.1175,0.0065
-0.086,-0.12,0.0065
-0.088,-0.12,0.007
-0.0785,-0.119,0.011
-0.076,-0.1205,0.0115
-0.0845,-0.1205,0.0065
-0.0885,-0.122,0.004
-0.088,-0.1225,0.004
-0.085,-0.124,0.007
-0.084,-0.1255,0.0105
-0.0885,-0.1255,0.007
-0.089,-0.1245,-0.0045
-0.09,-0.1255,-0.007
-0.0905,-0.126,-0.0045
-0.0895,-0.1235,-0.0015
-0.0855,-0.121,0.0005
-0.0785,-0.12,0.002
-0.081,-0.121,0.003
-0.086,-0.1175,-0.003
-0.0855,-0.12,-0.0055
-0.084,-0.1215,-0.0035
-0.088,-0.119,0.0015
-0.0875,-0.119,0.004
-0.0825,-0.118,0.005
-0.0855,-0.1175,0.0055
-0.0895,-0.118,0.0065
-0.0865,-0.118,0.0125
-0.0845,-0.1155,0.014
-0.0875,-0.1175,0.008
-0.089,-0.1205,0.004
-0.0875,-0.117,0.005
-0.0815,-0.115,0.012
-0.082,-0.116,0.017
-0.0795,-0.1135,0.0105
-0.076,-0.114,0.008
-0.0815,-0.119,0.0115
-0.086,-0.119,0.0105
-0.083,-0.119,0.01
-0.0735,-0.118,0.012
-0.0735,-0.118,0.013
-0.0765,-0.12,0.01
-0.075,-0.1215,0.0075
-0.0785,-0.1235,0.006
-0.0835,-0.1225,0.0005
-0.086,-0.12,-0.005
-0.0835,-0.1175,-0.0045
-0.0815,-0.1165,-0.002
-0.081,-0.1165,0.0025
-0.0765,-0.115,0.003
-0.0795,-0.116,0.0055
-0.084,-0.118,0.0065
-0.0845,-0.1165,0.0005
-0.0815,-0.117,0.0
-0.079,-0.116,0.003
-0.079,-0.1165,0.0035
-0.0835,-0.1185,0.001
-0.0925,-0.1215,-0.001
-0.087,-0.1215,0.001
-0.0865,-0.1185,0.0045
-0.086,-0.1195,0.0045
-0.0775,-0.1185,0.0005
-0.0785,-0.1185,0.0015
-0.084,-0.12,0.005
-0.087,-0.12,0.0025
-0.0845,-0.119,0.005
-0.0885,-0.1205,0.0105
-0.09,-0.1225,0.0005
-0.0805,-0.123,-0.0005
-0.079,-0.1245,0.003
-0.08,-0.1225,0.003
-0.0865,-0.121,0.005
-0.0935,-0.1215,0.005
-0.091,-0.1195,0.008
-0.092,-0.1185,0.0075
-0.0875,-0.1205,0.0075
-0.081,-0.119,0.0075
-0.0795,-0.118,0.009
-0.082,-0.118,0.012
-0.0825,-0.119,0.014
-0.0775,-0.119,0.012
-0.0865,-0.1195,0.0045
-0.093,-0.1215,0.0005
-0.086,-0.121,0.001
-0.086,-0.121,0.001
-0.0835,-0.12,0.0015
-0.081,-0.1185,0.001
-0.0815,-0.1185,-0.0025
-0.0795,-0.118,0.0025
-0.081,-0.1205,0.0015
-0.082,-0.12,-0.004
-0.085,-0.1205,-0.002
-0.086,-0.1205,-0.003
-0.085,-0.119,0.0
-0.081,-0.118,0.006
-0.0835,-0.12,0.0035
-0.089,-0.1215,-0.002
-0.0895,-0.121,-0.0025
-0.0885,-0.1215,-0.0005
-0.0845,-0.1185,0.003
-0.083,-0.1185,0.006
-0.081,-0.118,0.0115
-0.0735,-0.1165,0.013
-0.075,-0.116,0.004
-0.0855,-0.118,0.0055
-0.0875,-0.119,0.007
-0.081,-0.116,0.003
-0.079,-0.117,0.0
-0.0775,-0.1175,-0.005
-0.072,-0.115,-0.0035
-0.0765,-0.116,-0.003
-0.071,-0.1165,0.003
-0.0675,-0.117,0.0055
-0.078,-0.1205,0.0025
-0.079,-0.1185,0.0085
-0.0785,-0.1185,0.012
-0.0845,-0.12,0.0065
-0.089,-0.1215,0.0075
-0.0895,-0.123,0.008
-0.0875,-0.123,0.007
-0.08,-0.1245,0.0075
-0.076,-0.1215,0.0055
-0.077,-0.122,0.0145
-0.0775,-0.1215,0.0095
-0.0775,-0.117,0.0055
-0.082,-0.1185,0.0035
-0.0815,-0.12,-0.0015
-0.076,-0.1185,0.008
-0.0805,-0.119,0.003
-0.082,-0.119,-0.0005
-0.077,-0.1165,0.003
-0.0765,-0.1175,0.0025
-0.074,-0.1145,0.0
-0.071,-0.112,-0.004
-0.073,-0.114,-0.007
-0.0805,-0.1165,-0.005
-0.084,-0.119,0.001
-0.0805,-0.1185,-0.002
-0.0815,-0.1175,-0.0055
-0.0795,-0.118,-0.003
-0.0785,-0.117,-0.005
-0.0825,-0.117,-0.0015
-0.086,-0.121,0.0055
-0.0865,-0.1205,0.004
-0.0865,-0.1205,0.0015
-0.0885,-0.122,0.004
-0.0825,-0.1205,0.009
-0.082,-0.12,0.0135
-0.08,-0.1205,0.0085
-0.075,-0.118,0.008
-0.0755,-0.116,0.0155
-0.076,-0.1175,0.0115
-0.0745,-0.116,0.014
-0.0705,-0.1155,0.017
-0.074,-0.1185,0.0125
-0.0725,-0.1175,0.0185
-0.069,-0.119,0.018
-0.0745,-0.1205,0.012
-0.08,-0.1215,0.0075
-0.075,-0.1215,0.011
-0.066,-0.1175,0.0105
-0.0695,-0.118,0.004
-0.07,-0.121,0.0085
-0.0695,-0.1215,0.0135
-0.0755,-0.1205,0.016
-0.078,-0.1205,0.0145
-0.074,-0.1185,0.0125
-0.077,-0.1185,0.0145
-0.0765,-0.1165,0.0105
-0.074,-0.116,0.0075
-0.073,-0.115,0.016
-0.063,-0.1105,0.021
-0.057,-0.105,0.0235
-0.059,-0.103,0.0225
-0.057,-0.1055,0.021
-0.056,-0.106,0.023
-0.058,-0.107,0.019
-0.057,-0.1045,0.021
-0.0595,-0.101,0.0325
-0.0535,-0.098,0.04
-0.0435,-0.094,0.041
-0.047,-0.093,0.0385
-0.0495,-0.09,0.042
-0.0455,-0.0865,0.049
-0.0395,-0.0815,0.053
-0.0355,-0.077,0.056
-0.0305,-0.072,0.0525
-0.0255,-0.066,0.0565
-0.022,-0.067,0.058
-0.0225,-0.068,0.0535
-0.0255,-0.0695,0.0615
-0.0325,-0.07,0.0595
-0.0365,-0.0665,0.0515
-0.03,-0.0645,0.049
-0.0295,-0.063,0.048
-0.031,-0.063,0.051
-0.0375,-0.065,0.054
-0.032,-0.0605,0.058
-0.03,-0.057,0.052
-0.0345,-0.057,0.0485
-0.0275,-0.0555,0.05
-0.029,-0.0515,0.046
-0.0205,-0.043,0.05
-0.011,-0.039,0.052
-0.0155,-0.0395,0.041
-0.0245,-0.0415,0.0315
-0.027,-0.042,0.0325
-0.0215,-0.0455,0.0335
-0.022,-0.0485,0.0305
-0.0245,-0.0515,0.0295
-0.026,-0.056,0.0295
-0.0355,-0.0595,0.0355
-0.033,-0.0615,0.035
-0.027,-0.0615,0.0345
-0.039,-0.066,0.04
-0.0435,-0.068,0.0405
-0.0395,-0.0665,0.038
-0.032,-0.0665,0.0315
-0.031,-0.067,0.028
-0.0295,-0.0665,0.0335
-0.0285,-0.066,0.035
-0.0385,-0.073,0.0355
-0.042,-0.0815,0.034
-0.043,-0.0845,0.0285
-0.046,-0.088,0.033
-0.0485,-0.0925,0.029
-0.051,-0.0965,0.0225
-0.0545,-0.0975,0.021
-0.0565,-0.0995,0.0145
-0.0495,-0.103,0.01
-0.0525,-0.1035,0.009
-0.053,-0.1015,0.0095
-0.045,-0.097,0.005
-0.045,-0.094,0.0
-0.0455,-0.0945,0.0
-0.0475,-0.0935,0.0095
-0.035,-0.085,0.023
-0.022,-0.0765,0.028
-0.0175,-0.073,0.034
-0.0165,-0.0715,0.035
-0.021,-0.0735,0.031
-0.02,-0.0745,0.034
-0.0185,-0.074,0.0295
-0.0155,-0.0745,0.024
-0.0195,-0.0765,0.023
-0.0195,-0.075,0.0215
-0.015,-0.0725,0.0215
-0.0215,-0.0775,0.016
-0.0195,-0.079,0.0165
-0.02,-0.0785,0.012
-0.026,-0.0825,0.0085
-0.0295,-0.0855,0.0115
-0.0325,-0.0865,0.011
-0.0385,-0.0895,0.0045
-0.044,-0.093,0.0015
-0.05,-0.1,0.0065
-0.063,-0.1115,-0.001
-0.07,-0.1175,-0.012
-0.078,-0.121,-0.0155
-0.087,-0.1245,-0.0115
-0.092,-0.127,-0.017
-0.088,-0.128,-0.027
-0.0805,-0.1275,-0.0295
-0.083,-0.129,-0.025
-0.0905,-0.1305,-0.0215
-0.096,-0.132,-0.019
-0.0925,-0.1325,-0.018
-0.0895,-0.1325,-0.021
-0.0855,-0.133,-0.016
-0.0895,-0.135,-0.0235
-0.0965,-0.139,-0.026
-0.097,-0.1395,-0.0215
-0.1005,-0.138,-0.0275
-0.0925,-0.135,-0.029
-0.087,-0.1345,-0.029
-0.089,-0.1355,-0.029
-0.09,-0.1345,-0.0275
-0.09,-0.133,-0.027
-0.0905,-0.1325,-0.029
-0.0975,-0.134,-0.03
-0.0945,-0.1335,-0.028
-0.0895,-0.1325,-0.019
-0.092,-0.136,-0.014
-0.0925,-0.136,-0.0165
-0.0925,-0.135,-0.0195
-0.0965,-0.1365,-0.0285
-0.097,-0.136,-0.023
-0.0955,-0.135,-0.0165
-0.0985,-0.134,-0.022
-0.0965,-0.135,-0.022
-0.091,-0.133,-0.0195
-0.0895,-0.1315,-0.0175
-0.088,-0.1315,-0.0185
-0.0895,-0.1285,-0.015
-0.0905,-0.129,-0.0155
-0.0895,-0.131,-0.0175
-0.0855,-0.1315,-0.0185
-0.0785,-0.127,-0.0255
-0.0825,-0.126,-0.0275
-0.086,-0.1275,-0.021
-0.0905,-0.13,-0.0235
-0.0965,-0.133,-0.0285
-0.0925,-0.134,-0.021
-0.0955,-0.132,-0.017
-0.098,-0.131,-0.015
-0.094,-0.1325,-0.014
-0.091,-0.129,-0.0105
-0.084,-0.1245,-0.0055
-0.081,-0.125,-0.0045
-0.087,-0.126,-0.006
-0.089,-0.1265,-0.0105
-0.091,-0.1255,-0.01
-0.092,-0.1245,-0.01
-0.0845,-0.122,-0.0095
-0.0815,-0.1215,-0.0085
-0.079,-0.123,-0.011
-0.083,-0.1265,-0.01
-0.085,-0.1275,-0.0105
-0.0895,-0.127,-0.004
-0.0905,-0.1265,-0.003
-0.0795,-0.1235,-0.006
-0.081,-0.123,-0.0025
-0.078,-0.124,-0.0065
-0.0835,-0.1245,-0.009
-0.0875,-0.1255,-0.0095
-0.082,-0.1225,-0.0035
-0.086,-0.1225,0.004
-0.0855,-0.1255,0.0045
-0.083,-0.1245,-0.0015
-0.087,-0.1275,-0.0025
-0.0915,-0.1295,0.0045
-0.0935,-0.1295,0.0035
-0.098,-0.131,0.003
-0.099,-0.1325,0.0065
-0.098,-0.135,0.0025
-0.0975,-0.137,0.0005
-0.1035,-0.1455,0.0055
-0.1105,-0.1535,0.012
-0.113,-0.16,0.021
-0.126,-0.171,0.0225
-0.1415,-0.1855,0.019
-0.154,-0.198,0.026
-0.1685,-0.2075,0.027
-0.1775,-0.221,0.024
-0.1865,-0.2345,0.027
-0.189,-0.247,0.022
-0.189,-0.257,0.019
-0.2,-0.2705,0.005
-0.205,-0.287,-0.016
-0.2065,-0.2975,-0.0295
-0.2045,-0.297,-0.038
-0.2015,-0.2975,-0.034
-0.1985,-0.296,-0.032
-0.183,-0.277,-0.0165
-0.1655,-0.255,-0.005
-0.151,-0.226,-0.0035
-0.125,-0.1865,0.016
-0.0835,-0.133,0.0235
-0.035,-0.07,0.0335
0.013,-0.0085,0.05
0.0605,0.053,0.0525
0.1105,0.1235,0.068
0.163,0.1965,0.0875
0.225,0.2675,0.106
0.28,0.354,0.1365
0.3365,0.455,0.1835
0.391,0.5545,0.239
0.433,0.647,0.3025
0.4815,0.7395,0.378
0.514,0.8255,0.4515
0.532,0.901,0.5365
0.5615,0.9775,0.617
0.5985,1.0535,0.683
0.609,1.124,0.761
0.607,1.181,0.827
0.6185,1.2415,0.9
0.636,1.32,0.977
0.6445,1.378,1.0145
0.6335,1.41,1.0475
0.6105,1.4185,1.0665
0.58,1.39,1.0535
0.534,1.326,1.016
0.49,1.2405,0.953
0.457,1.153,0.849
0.424,1.058,0.7305
0.3965,0.973,0.6555
0.363,0.899,0.613
0.3285,0.828,0.5835
0.293,0.7675,0.5585
0.2535,0.7,0.524
0.213,0.6215,0.4855
0.1615,0.54,0.4585
0.1115,0.4455,0.417
0.061,0.3455,0.385
0.0165,0.2565,0.366
-0.019,0.165,0.3335
-0.05,0.0825,0.3035
-0.081,0.0035,0.2535
-0.127,-0.0835,0.2095
-0.1565,-0.1355,0.188
-0.164,-0.1645,0.1545
-0.1685,-0.185,0.1115
-0.1595,-0.2,0.0695
-0.158,-0.2285,0.0335
-0.165,-0.252,0.0065
-0.1625,-0.265,-0.025
-0.1555,-0.275,-0.046
-0.1505,-0.2745,-0.0605
-0.1445,-0.264,-0.0725
-0.1315,-0.2455,-0.08
-0.1255,-0.2335,-0.081
-0.1205,-0.2255,-0.0635
-0.118,-0.213,-0.051
-0.112,-0.2025,-0.042
-0.101,-0.1935,-0.034
-0.098,-0.184,-0.024
-0.0965,-0.174,-0.017
-0.104,-0.166,-0.014
-0.104,-0.159,-0.006
-0.0965,-0.147,0.0095
-0.0915,-0.135,0.021
-0.085,-0.1235,0.026
-0.0825,-0.114,0.0395
-0.0755,-0.107,0.05
-0.0725,-0.1015,0.0525
-0.0765,-0.0985,0.052
-0.0675,-0.0945,0.053
-0.07,-0.093,0.0565
-0.077,-0.093,0.062
-0.0645,-0.0915,0.0555
-0.0695,-0.0945,0.0495
-0.0735,-0.0965,0.06
-0.069,-0.0955,0.06
-0.07,-0.0955,0.053
-0.0625,-0.0955,0.0525
-0.0695,-0.096,0.053
-0.0695,-0.092,0.0495
-0.0615,-0.0925,0.0455
-0.066,-0.095,0.043
-0.0685,-0.0905,0.049
-0.0735,-0.088,0.0465
-0.0725,-0.0895,0.041
-0.0625,-0.09,0.0515
-0.06,-0.087,0.051
-0.063,-0.0875,0.0535
-0.0585,-0.0865,0.056
-0.067,-0.0895,0.0535
-0.074,-0.094,0.055
-0.0645,-0.088,0.0545
-0.0595,-0.088,0.052
-0.0575,-0.086,0.046
-0.0585,-0.08,0.0465
-0.062,-0.0805,0.039
-0.0635,-0.082,0.038
-0.0645,-0.082,0.0425
-0.0555,-0.0745,0.0415
-0.0445,-0.0705,0.044
-0.0485,-0.069,0.0475
-0.048,-0.07,0.05
-0.05,-0.071,0.051
-0.06,-0.0715,0.052
-0.0605,-0.0745,0.0475
-0.058,-0.0705,0.0475
-0.0545,-0.07,0.0545
-0.0565,-0.074,0.0565
-0.054,-0.0735,0.056
-0.0445,-0.068,0.0575
-0.0505,-0.067,0.059
-0.05,-0.066,0.0605
-0.0435,-0.063,0.06
-0.046,-0.064,0.059
-0.044,-0.063,0.059
-0.0425,-0.0625,0.0605
-0.0435,-0.063,0.0585
-0.0395,-0.062,0.0555
-0.041,-0.062,0.0545
-0.045,-0.065,0.0565
-0.0395,-0.064,0.053
-0.0425,-0.064,0.051
-0.045,-0.0615,0.0545
-0.043,-0.061,0.0545
-0.041,-0.062,0.053
-0.037,-0.0585,0.0505
-0.049,-0.063,0.054
-0.0465,-0.0605,0.057
-0.0385,-0.056,0.0545
-0.038,-0.056,0.0555
-0.0375,-0.055,0.057
-0.0415,-0.057,0.053
-0.0425,-0.0545,0.0485
-0.044,-0.053,0.055
-0.0325,-0.05,0.0595
-0.029,-0.044,0.054
-0.026,-0.042,0.052
-0.0215,-0.043,0.052
-0.0325,-0.043,0.0495
-0.037,-0.042,0.045
-0.0325,-0.04,0.049
-0.0245,-0.037,0.053
-0.024,-0.0355,0.0525
-0.0305,-0.036,0.056
-0.034,-0.0375,0.0585
-0.031,-0.036,0.0555
-0.0275,-0.0375,0.057
-0.027,-0.0405,0.068
-0.028,-0.038,0.069
-0.035,-0.036,0.0665
-0.0365,-0.04,0.0735
-0.027,-0.039,0.0725
-0.0245,-0.033,0.0675
-0.02,-0.0305,0.065
-0.012,-0.028,0.069
-0.012,-0.0255,0.072
-0.012,-0.025,0.069
-0.0095,-0.0265,0.0685
-0.0065,-0.0285,0.0705
-0.01,-0.0265,0.0695
-0.015,-0.0225,0.064
-0.0125,-0.024,0.063
-0.0095,-0.023,0.0685
-0.019,-0.0215,0.063
-0.0255,-0.0215,0.061
-0.0135,-0.0205,0.0675
-0.0115,-0.018,0.076
-0.012,-0.017,0.0815
-0.007,-0.0155,0.0725
-0.012,-0.0165,0.071
-0.0115,-0.0165,0.0735
-0.0115,-0.012,0.0745
-0.0085,-0.012,0.077
0.0005,-0.0085,0.081
-0.001,-0.006,0.086
0.0025,-0.0045,0.0765
0.0005,-0.003,0.0725
-0.0005,-0.003,0.077
0.004,-0.0015,0.0745
0.0025,-0.003,0.076
0.0075,-0.0005,0.0795
0.016,0.0045,0.079
0.017,0.005,0.08
0.016,0.006,0.0755
0.0115,0.0095,0.0775
0.0115,0.0145,0.0825
0.0175,0.0165,0.0835
0.0155,0.0165,0.089
0.017,0.019,0.092
0.0235,0.022,0.093
0.03,0.026,0.102
0.0295,0.0295,0.101
0.034,0.0325,0.094
0.03,0.033,0.089
0.019,0.033,0.0855
0.0265,0.0365,0.0915
0.029,0.039,0.096
0.034,0.04,0.0975
0.044,0.047,0.103
0.053,0.054,0.1065
0.0545,0.0545,0.11
0.0505,0.0565,0.1125
0.05,0.0605,0.109
0.051,0.066,0.1075
0.058,0.0715,0.1025
0.0605,0.0745,0.1025
0.062,0.076,0.112
0.07,0.0795,0.118
0.066,0.0855,0.1145
0.061,0.0865,0.1155
0.0645,0.0895,0.119
0.069,0.0935,0.1145
0.0695,0.097,0.1135
0.0705,0.101,0.118
0.078,0.1065,0.1205
0.087,0.115,0.1205
0.0915,0.1175,0.125
0.088,0.1215,0.1185
0.0855,0.124,0.115
0.087,0.122,0.1195
0.087,0.1235,0.122
0.0875,0.1275,0.123
0.095,0.1325,0.122
0.1025,0.1345,0.1255
0.1065,0.1395,0.1315
0.1075,0.1425,0.137
0.109,0.1455,0.1455
0.118,0.1525,0.153
0.1195,0.1545,0.149
0.1185,0.1595,0.1465
0.1265,0.1655,0.145
0.1305,0.1695,0.1455
0.129,0.171,0.1505
0.1225,0.169,0.155
0.123,0.173,0.156
0.129,0.1795,0.1535
0.127,0.179,0.151
0.1305,0.18,0.15
0.1305,0.184,0.152
0.1335,0.1875,0.1595
0.143,0.189,0.1655
0.1445,0.195,0.1665
0.1405,0.199,0.166
0.143,0.199,0.1645
0.1555,0.2065,0.169
0.153,0.208,0.169
0.1525,0.209,0.1665
0.1475,0.2105,0.1725
0.143,0.2115,0.183
0.1525,0.2165,0.188
0.15,0.2155,0.183
0.15,0.215,0.1835
0.161,0.222,0.184
0.165,0.225,0.1805
0.161,0.2235,0.1845
0.164,0.2255,0.1885
0.1625,0.225,0.1885
0.155,0.227,0.182
0.1655,0.231,0.1845
0.1685,0.233,0.183
0.172,0.2375,0.184
0.1705,0.237,0.191
0.163,0.2355,0.183
0.1775,0.241,0.188
0.1725,0.2395,0.193
0.165,0.2355,0.1905
0.1655,0.236,0.19
0.159,0.235,0.19
0.1615,0.2365,0.1895
0.163,0.236,0.192
0.163,0.235,0.1925
0.1625,0.234,0.191
0.155,0.229,0.188
0.158,0.228,0.1915
0.1595,0.2285,0.192
0.16,0.2305,0.185
0.1635,0.2275,0.188
0.153,0.2215,0.1845
0.1575,0.22,0.179
0.154,0.218,0.18
0.155,0.218,0.181
0.1585,0.2145,0.184
0.1415,0.21,0.1885
0.1415,0.205,0.1895
0.135,0.198,0.1815
0.1315,0.196,0.172
0.1275,0.19,0.17
0.123,0.183,0.175
0.125,0.1785,0.181
0.1165,0.1745,0.1775
0.1145,0.167,0.171
0.1145,0.1615,0.167
0.109,0.1565,0.161
0.102,0.151,0.158
0.094,0.1425,0.157
0.0885,0.1365,0.153
0.0845,0.1335,0.1455
0.0815,0.126,0.1405
0.0735,0.117,0.14
0.066,0.109,0.135
0.064,0.1045,0.1255
0.057,0.101,0.115
0.054,0.0925,0.113
0.0545,0.085,0.1205
0.0545,0.0805,0.115
0.052,0.0745,0.1055
0.0455,0.066,0.1035
0.044,0.0595,0.1065
0.039,0.055,0.1065
0.037,0.0475,0.1055
0.0375,0.0425,0.102
0.025,0.0375,0.093
0.019,0.03,0.0915
0.0225,0.0245,0.0915
0.0235,0.022,0.0905
0.0115,0.0135,0.09
0.0015,0.005,0.086
-0.003,0.003,0.078
-0.0115,-0.001,0.0745
-0.0085,-0.005,0.075
-0.008,-0.009,0.0685
-0.013,-0.013,0.0645
-0.019,-0.0155,0.0655
-0.0225,-0.021,0.0615
-0.017,-0.026,0.059
-0.019,-0.0305,0.063
-0.026,-0.034,0.0575
-0.027,-0.039,0.0545
-0.0315,-0.0415,0.0525
-0.0215,-0.04,0.05
-0.017,-0.0445,0.049
-0.0305,-0.0495,0.043
-0.0375,-0.0555,0.04
-0.039,-0.0585,0.033
-0.0405,-0.064,0.0265
-0.0415,-0.0675,0.03
-0.0355,-0.065,0.031
-0.041,-0.067,0.026
-0.0445,-0.0715,0.021
-0.0435,-0.077,0.022
-0.049,-0.08,0.0225
-0.0525,-0.082,0.0235
-0.0515,-0.086,0.0275
-0.0495,-0.09,0.03
-0.0525,-0.0895,0.029
-0.0575,-0.089,0.0235
-0.056,-0.089,0.0175
-0.056,-0.088,0.017
-0.0575,-0.091,0.022
-0.0555,-0.088,0.0195
-0.06,-0.0875,0.013
-0.0575,-0.09,0.019
-0.0515,-0.0895,0.023
-0.0575,-0.092,0.016
-0.0575,-0.093,0.014
-0.054,-0.0945,0.0145
-0.06,-0.0965,0.0135
-0.062,-0.0975,0.012
-0.063,-0.098,0.015
-0.063,-0.099,0.0135
-0.06,-0.0995,0.0105
-0.064,-0.098,0.0165
-0.0675,-0.0995,0.015
-0.0715,-0.101,0.0105
-0.0745,-0.099,0.003
-0.069,-0.096,0.001
-0.064,-0.095,0.005
-0.061,-0.0945,0.01
-0.059,-0.096,0.017
-0.0585,-0.096,0.018
-0.064,-0.0965,0.01
-0.067,-0.098,0.009
-0.065,-0.0955,0.0095
-0.067,-0.095,0.006
-0.0705,-0.095,0.006
-0.072,-0.0935,0.0015
-0.0715,-0.093,0.005
-0.068,-0.094,0.008
-0.0555,-0.092,0.011
-0.058,-0.0925,0.019
-0.0625,-0.0935,0.017
-0.063,-0.092,0.0185
-0.075,-0.0975,0.021
-0.071,-0.096,0.019
-0.0615,-0.0955,0.0225
-0.059,-0.0965,0.027
-0.0545,-0.093,0.0335
-0.055,-0.094,0.027
-0.054,-0.0925,0.0215
-0.0575,-0.091,0.027
-0.061,-0.0935,0.021
-0.0555,-0.0925,0.0185
-0.057,-0.09,0.019
-0.0655,-0.09,0.0135
-0.0645,-0.0865,0.0125
-0.064,-0.0885,0.014
-0.0675,-0.09,0.0135
-0.0625,-0.0855,0.0095
-0.068,-0.0895,0.011
-0.0655,-0.09,0.0165
-0.0545,-0.085,0.0175
-0.0585,-0.088,0.0185
-0.056,-0.088,0.0195
-0.0535,-0.0855,0.0195
-0.061,-0.0875,0.0145
-0.065,-0.089,0.0145
-0.0615,-0.0905,0.0165
-0.0595,-0.088,0.0155
-0.0565,-0.086,0.0175
-0.052,-0.086,0.018
-0.055,-0.0865,0.0245
-0.06,-0.0885,0.0305
-0.064,-0.0915,0.0265
-0.0625,-0.092,0.0265
-0.061,-0.0895,0.0345
-0.068,-0.09,0.0305
-0.0655,-0.092,0.0305
-0.0685,-0.095,0.029
-0.0625,-0.093,0.0255
-0.0475,-0.0905,0.0275
-0.054,-0.092,0.0225
-0.056,-0.0895,0.0265
-0.057,-0.0875,0.028
-0.063,-0.089,0.0235
-0.069,-0.09,0.019
-0.062,-0.088,0.0225
-0.057,-0.087,0.0245
-0.0625,-0.086,0.022
-0.0605,-0.0825,0.022
-0.057,-0.0805,0.0215
-0.0495,-0.079,0.0285
-0.0475,-0.0795,0.0275
-0.045,-0.078,0.0295
-0.046,-0.0795,0.0375
-0.052,-0.083,0.0395
-0.058,-0.081,0.039
-0.0625,-0.082,0.034
-0.0575,-0.0815,0.0305
-0.056,-0.081,0.033
-0.062,-0.085,0.035
-0.0565,-0.083,0.029
-0.05,-0.081,0.025
-0.0525,-0.0845,0.022
-0.049,-0.0815,0.015
-0.0565,-0.0845,0.011
-0.0605,-0.0875,0.014
-0.0525,-0.0855,0.02
-0.0525,-0.0875,0.0245
-0.059,-0.091,0.0235
-0.059,-0.0905,0.0175
-0.0585,-0.09,0.019
-0.063,-0.0905,0.0205
-0.06,-0.0875,0.0185
-0.0555,-0.0855,0.0195
-0.059,-0.087,0.027
-0.0635,-0.0875,0.0295
-0.0595,-0.086,0.024
-0.051,-0.086,0.0265
-0.0495,-0.086,0.0295
-0.0585,-0.0885,0.029
-0.0615,-0.0905,0.024
-0.053,-0.088,0.023
-0.0535,-0.0865,0.026
-0.055,-0.0865,0.024
-0.0515,-0.09,0.0195
-0.0495,-0.09,0.0225
-0.0505,-0.0875,0.025
-0.0545,-0.0855,0.021
-0.054,-0.0855,0.024
-0.058,-0.0875,0.0225
-0.062,-0.0875,0.0265
-0.0605,-0.0865,0.0295
-0.057,-0.0865,0.0305
-0.0545,-0.086,0.031
-0.06,-0.087,0.026
-0.059,-0.0865,0.025
-0.054,-0.085,0.021
-0.055,-0.0825,0.014
-0.061,-0.0825,0.016
-0.0585,-0.0855,0.019
-0.054,-0.083,0.015
-0.057,-0.0835,0.0175
-0.058,-0.0835,0.027
-0.058,-0.082,0.025
-0.0565,-0.0805,0.019
-0.0535,-0.0825,0.021
-0.0575,-0.0885,0.0225
-0.064,-0.091,0.021
-0.0645,-0.087,0.0115
-0.06,-0.081,0.01
-0.0555,-0.0865,0.0225
-0.057,-0.0905,0.028
-0.0585,-0.091,0.031
-0.0565,-0.091,0.029
-0.0545,-0.0895,0.027
-0.057,-0.091,0.025
-0.062,-0.092,0.018
-0.064,-0.0965,0.0195
-0.065,-0.099,0.019
-0.0605,-0.096,0.0135
-0.056,-0.096,0.0125
-0.0565,-0.097,0.014
-0.061,-0.0965,0.0125
-0.0645,-0.096,0.008
-0.0635,-0.0975,0.0095
-0.065,-0.098,0.014
-0.0605,-0.096,0.021
-0.0595,-0.0935,0.023
-0.064,-0.0965,0.025
-0.069,-0.1,0.027
-0.065,-0.097,0.023
-0.0585,-0.0955,0.0235
-0.063,-0.0945,0.018
-0.0675,-0.0965,0.014
-0.0655,-0.098,0.0195
-0.059,-0.0975,0.019
-0.065,-0.098,0.0165
-0.0635,-0.096,0.0105
-0.062,-0.0955,0.0135
-0.0635,-0.0975,0.0155
-0.0625,-0.0995,0.011
-0.066,-0.1,0.011
-0.063,-0.1,0.012
-0.058,-0.1,0.0145
-0.06,-0.1025,0.009
-0.064,-0.1065,0.0085
-0.064,-0.108,0.01
-0.068,-0.105,0.0065
-0.0695,-0.1045,0.008
-0.0705,-0.1075,0.0095
-0.0645,-0.105,0.0145
-0.064,-0.107,0.0185
-0.0635,-0.107,0.0205
-0.0615,-0.1055,0.015
-0.0715,-0.1105,0.013
-0.072,-0.1085,0.015
-0.068,-0.107,0.01
-0.063,-0.106,0.0095
-0.064,-0.106,0.003
-0.0645,-0.1085,-0.003
-0.066,-0.1095,0.0045
-0.0675,-0.108,0.0115
-0.068,-0.1055,0.0065
-0.0695,-0.1045,0.0025
-0.07,-0.1075,0.0065
-0.076,-0.111,0.0015
-0.0695,-0.108,0.001
-0.068,-0.108,0.0035
-0.0785,-0.113,0.0035
-0.0775,-0.112,0.005
-0.0685,-0.11,0.0005
-0.0705,-0.111,-0.001
-0.0725,-0.1095,0.001
-0.0635,-0.1065,0.0085
-0.0635,-0.1065,0.0115
-0.072,-0.1115,0.009
-0.067,-0.112,0.0105
-0.058,-0.1065,0.011
-0.06,-0.1075,0.0115
-0.067,-0.108,0.0055
-0.0735,-0.1105,-0.007
-0.075,-0.1085,-0.0015
-0.075,-0.1065,0.0095
-0.073,-0.108,0.006
-0.067,-0.106,0.0025
-0.061,-0.1015,-0.008
-0.0655,-0.102,-0.006
-0.0735,-0.1045,-0.004
-0.0635,-0.1025,-0.001
-0.0575,-0.102,0.005
-0.0665,-0.1025,0.0
-0.07,-0.106,0.0025
-0.067,-0.1055,0.0005
-0.069,-0.1045,-0.001
-0.0665,-0.1045,0.005
-0.062,-0.104,0.002
-0.062,-0.101,-0.0005
-0.07,-0.102,0.001
-0.0735,-0.1065,0.003
-0.0685,-0.1035,0.006
-0.069,-0.1055,0.002
-0.0725,-0.108,0.0
-0.079,-0.11,0.0005
-0.076,-0.11,0.0005
-0.0785,-0.1105,-0.003
-0.0795,-0.109,-0.0055
-0.069,-0.107,-0.008
-0.0675,-0.1095,-0.0075
-0.065,-0.109,-0.0045
-0.0595,-0.107,-0.004
-0.0605,-0.106,0.0015
-0.0705,-0.109,-0.003
-0.0725,-0.11,-0.003
-0.0695,-0.11,0.003
-0.067,-0.106,0.0025
-0.064,-0.1035,0.0015
-0.065,-0.1035,-0.004
-0.0685,-0.1045,0.0
-0.0695,-0.106,0.0
-0.0655,-0.1055,-0.0025
-0.0655,-0.104,-0.0035
-0.0665,-0.1045,-0.007
-0.0615,-0.106,-0.0025
-0.0595,-0.1055,-0.0025
-0.063,-0.1095,0.0005
-0.0665,-0.108,0.003
-0.0715,-0.11,0.0045
-0.0685,-0.11,0.005
-0.0655,-0.108,0.0025
-0.0655,-0.1065,0.0035
-0.064,-0.106,0.0065
-0.0705,-0.107,0.007
-0.0695,-0.1035,-0.0005
-0.0645,-0.1055,-0.004
-0.0705,-0.1065,-0.0055
-0.0725,-0.105,-0.004
-0.0705,-0.1025,-0.008
-0.06,-0.103,-0.0065
-0.0625,-0.106,-0.0025
-0.0755,-0.1075,-0.006
-0.0635,-0.1035,-0.006
-0.059,-0.101,-0.008
-0.0685,-0.1045,-0.0035
-0.0685,-0.1035,0.001
-0.064,-0.104,-0.0025
-0.067,-0.1055,-0.0025
-0.0745,-0.1075,0.0025
-0.076,-0.1105,-0.002
-0.067,-0.107,-0.0035
-0.0605,-0.1075,0.0005
-0.069,-0.1135,-0.003
-0.0745,-0.1115,-0.005
-0.067,-0.1095,-0.0025
-0.059,-0.1095,0.0045
-0.057,-0.1095,0.0035
-0.066,-0.1115,-0.0045
-0.0685,-0.1105,-0.003
-0.061,-0.107,0.0005
-0.068,-0.11,-0.004
-0.074,-0.112,-0.0085
-0.0745,-0.1105,-0.008
-0.0795,-0.111,-0.0105
-0.0695,-0.107,-0.0145
-0.067,-0.105,-0.01
-0.0735,-0.1085,-0.009
-0.0665,-0.1105,-0.008
-0.0595,-0.108,-0.0025
-0.0585,-0.107,-0.0035
-0.062,-0.111,-0.005
-0.065,-0.1105,-0.009
-0.065,-0.113,-0.005
-0.0725,-0.118,-0.0025
-0.071,-0.112,-0.0105
-0.0655,-0.1105,-0.011
-0.0765,-0.116,-0.0085
-0.077,-0.1145,-0.0035
-0.0785,-0.114,-0.0065
-0.08,-0.112,-0.0125
-0.07,-0.1095,-0.0125
-0.073,-0.1085,-0.0095
-0.076,-0.109,-0.0065
-0.081,-0.1115,-0.011
-0.083,-0.112,-0.0095
-0.0725,-0.108,-0.009
-0.063,-0.1055,-0.012
-0.057,-0.106,-0.0055
-0.0545,-0.108,-0.002
-0.0625,-0.1125,-0.0045
-0.0715,-0.11,-0.0065
-0.07,-0.109,-0.0035
-0.071,-0.1095,0.0005
-0.068,-0.109,0.002
-0.067,-0.1075,0.0005
-0.0675,-0.1065,0.0
-0.0625,-0.1055,0.002
-0.0655,-0.1025,-0.004
-0.0715,-0.1045,0.001
-0.0755,-0.106,0.003
-0.0725,-0.106,-0.0065
-0.074,-0.103,-0.0105
-0.07,-0.1015,-0.012
-0.069,-0.1045,-0.0095
-0.0715,-0.103,-0.0065
-0.0625,-0.1035,-0.007
-0.069,-0.105,-0.008
-0.069,-0.1025,-0.0055
-0.0605,-0.1005,-0.0045
-0.0625,-0.1005,-0.004
-0.057,-0.1025,-0.003
-0.058,-0.1025,-0.0035
-0.068,-0.1025,0.002
-0.066,-0.103,0.005
-0.061,-0.104,0.0
-0.066,-0.1045,-0.004
-0.065,-0.106,-0.006
-0.068,-0.111,0.0005
-0.067,-0.11,0.0
-0.062,-0.108,-0.007
-0.07,-0.111,-0.0065
-0.0725,-0.114,-0.0065
-0.0795,-0.119,-0.008
-0.076,-0.115,-0.007
-0.0695,-0.112,-0.0085
-0.0675,-0.109,-0.0115
-0.062,-0.1075,-0.0125
-0.0665,-0.1135,-0.011
-0.0675,-0.1125,-0.0045
-0.069,-0.111,-0.0075
-0.0705,-0.111,-0.008
-0.072,-0.113,-0.003
-0.068,-0.1115,-0.001
-0.0585,-0.105,0.0005
-0.0585,-0.1065,0.0045
-0.06,-0.106,0.0055
-0.065,-0.1065,0.003
-0.0715,-0.1105,0.01
-0.0675,-0.107,0.0105
-0.065,-0.1055,0.0075
-0.0655,-0.1075,0.0085
-0.0575,-0.1065,0.003
-0.0575,-0.108,0.0005
-0.061,-0.1055,0.004
-0.058,-0.1025,0.006
-0.065,-0.1055,0.008
-0.069,-0.1065,0.0025
-0.07,-0.106,-0.0055
-0.071,-0.106,-0.0055
-0.073,-0.1075,-0.0065
-0.0725,-0.105,-0.013
-0.0615,-0.102,-0.006
-0.063,-0.104,0.0085
-0.0655,-0.106,0.0065
-0.06,-0.107,-0.002
-0.057,-0.1045,-0.004
-0.06,-0.103,-0.0005
-0.0575,-0.1055,-0.0045
-0.0565,-0.1075,-0.0125
-0.058,-0.106,-0.0135
-0.049,-0.103,-0.0075
-0.0445,-0.103,-0.0035
-0.0505,-0.1045,-0.0095
-0.05,-0.105,-0.009
-0.045,-0.1,-0.003
-0.0505,-0.097,-0.002
-0.044,-0.0955,0.009
-0.038,-0.093,0.017
-0.044,-0.0915,0.0245
-0.045,-0.0905,0.039
-0.039,-0.0855,0.041
-0.0325,-0.078,0.036
-0.0335,-0.075,0.035
-0.0325,-0.0715,0.033
-0.027,-0.0675,0.033
-0.0205,-0.0625,0.036
-0.0165,-0.054,0.039
-0.0115,-0.0475,0.039
-0.0075,-0.0445,0.031
-0.004,-0.044,0.026
0.0005,-0.0425,0.027
-0.0095,-0.046,0.0315
-0.0145,-0.049,0.031
-0.015,-0.0475,0.028
-0.016,-0.046,0.032
-0.0125,-0.044,0.031
-0.018,-0.0475,0.0295
-0.016,-0.0445,0.026
-0.0135,-0.0425,0.0215
-0.021,-0.0485,0.0205
-0.0215,-0.0455,0.0235
-0.0135,-0.0415,0.0275
-0.005,-0.0395,0.029
-0.004,-0.039,0.0315
-0.0015,-0.0355,0.025
0.0015,-0.0375,0.014
-0.006,-0.0425,0.0075
-0.0085,-0.043,0.009
-0.0085,-0.0445,0.005
-0.005,-0.047,-0.0005
-0.0025,-0.049,-0.002
-0.012,-0.049,-0.01
-0.0125,-0.05,-0.0105
-0.0155,-0.053,0.0015
-0.019,-0.053,0.007
-0.024,-0.0565,0.0105
-0.0305,-0.0625,0.012
-0.029,-0.0655,0.005
-0.035,-0.0695,0.0125
-0.0295,-0.0695,0.02
-0.0225,-0.072,0.0215
-0.0305,-0.072,0.0185
-0.0345,-0.071,0.015
-0.034,-0.08,0.0105
-0.0375,-0.0855,0.006
-0.043,-0.088,0.0075
-0.041,-0.0855,0.0065
-0.0385,-0.0845,0.004
-0.041,-0.0865,0.0005
-0.028,-0.0785,0.0025
-0.02,-0.0755,-0.0045
-0.0185,-0.0755,-0.0025
-0.0085,-0.07,0.004
-0.002,-0.064,0.0005
-0.002,-0.0655,0.009
-0.012,-0.0685,0.009
-0.0115,-0.0655,0.0065
-0.004,-0.0665,0.013
-0.0075,-0.0685,0.017
-0.0035,-0.068,0.017
-0.004,-0.0675,0.019
-0.0065,-0.0695,0.017
-0.0005,-0.0695,0.0075
-0.0035,-0.068,0.0035
-0.0085,-0.0715,-0.002
-0.01,-0.0715,0.0025
-0.013,-0.072,0.0045
-0.0145,-0.076,-0.005
-0.013,-0.0755,-0.009
-0.009,-0.075,-0.0105
-0.017,-0.0795,-0.018
-0.02,-0.086,-0.019
-0.021,-0.0895,-0.0165
-0.036,-0.0945,-0.0215
-0.046,-0.1025,-0.022
-0.0555,-0.1085,-0.0255
-0.058,-0.115,-0.0305
-0.059,-0.122,-0.032
-0.065,-0.1245,-0.035
-0.07,-0.124,-0.039
-0.0735,-0.1265,-0.037
-0.0725,-0.124,-0.032
-0.071,-0.1215,-0.024
-0.0725,-0.121,-0.0175
-0.075,-0.1195,-0.0165
-0.0735,-0.1215,-0.0135
-0.0745,-0.1235,-0.011
-0.08,-0.1245,-0.009
-0.0825,-0.127,-0.0105
-0.081,-0.1275,-0.0175
-0.0825,-0.129,-0.028
-0.079,-0.131,-0.028
-0.0705,-0.131,-0.0235
-0.0675,-0.132,-0.0245
-0.072,-0.1335,-0.0245
-0.074,-0.135,-0.0255
-0.0695,-0.133,-0.0265
-0.0745,-0.1355,-0.027
-0.0795,-0.1355,-0.0315
-0.077,-0.134,-0.0275
-0.0775,-0.1355,-0.0195
-0.0785,-0.132,-0.0235
-0.0815,-0.131,-0.019
-0.089,-0.1315,-0.0175
-0.09,-0.1335,-0.0215
-0.0835,-0.1325,-0.02
-0.0815,-0.129,-0.0195
-0.0825,-0.1295,-0.017
-0.078,-0.127,-0.0175
-0.079,-0.127,-0.021
-0.079,-0.129,-0.024
-0.0795,-0.129,-0.0215
-0.0875,-0.132,-0.018
-0.084,-0.1315,-0.0185
-0.079,-0.129,-0.017
-0.0825,-0.1285,-0.0165
-0.0815,-0.1265,-0.016
-0.074,-0.1245,-0.0155
-0.068,-0.1225,-0.015
-0.069,-0.1215,-0.015
-0.0705,-0.123,-0.0115
-0.0785,-0.125,-0.0115
-0.092,-0.129,-0.0135
-0.088,-0.1285,-0.0115
-0.0835,-0.1275,-0.01
-0.086,-0.1285,-0.0135
-0.0835,-0.1285,-0.0155
-0.0815,-0.1275,-0.011
-0.075,-0.1245,-0.012
-0.071,-0.123,-0.0185
-0.072,-0.123,-0.017
-0.073,-0.123,-0.0115
-0.0755,-0.1245,-0.0125
-0.075,-0.1245,-0.0135
-0.0795,-0.1265,-0.0145
-0.0805,-0.1295,-0.0145
-0.0755,-0.132,-0.014
-0.0735,-0.1295,-0.0105
-0.075,-0.127,-0.009
-0.083,-0.1295,-0.01
-0.085,-0.13,-0.0065
-0.0835,-0.129,-0.006
-0.0825,-0.126,-0.004
-0.0805,-0.1265,-0.002
-0.082,-0.128,-0.0025
-0.0785,-0.1245,-0.0045
-0.0735,-0.1225,-0.0075
-0.0725,-0.124,-0.001
-0.072,-0.1265,0.0055
-0.0725,-0.126,0.0015
-0.0825,-0.1325,0.0015
-0.0915,-0.1385,0.0065
-0.093,-0.142,0.008
-0.103,-0.155,0.0075
-0.113,-0.167,0.0095
-0.117,-0.179,0.011
-0.129,-0.193,0.013
-0.1405,-0.2055,0.018
-0.1485,-0.217,0.0195
-0.162,-0.229,0.02
-0.1695,-0.241,0.012
-0.178,-0.252,-0.0025
-0.1845,-0.2665,-0.0095
-0.1875,-0.2805,-0.0275
-0.1895,-0.29,-0.04
-0.187,-0.2915,-0.041
-0.1805,-0.292,-0.053
-0.174,-0.2935,-0.0505
-0.178,-0.288,-0.043
-0.1705,-0.272,-0.043
-0.1555,-0.2455,-0.0315
-0.1335,-0.2095,-0.0135
-0.0955,-0.1635,0.008
-0.0515,-0.1095,0.016
-0.0065,-0.0465,0.029
0.0295,0.0105,0.049
0.082,0.081,0.057
0.1425,0.1595,0.077
0.1845,0.226,0.0955
0.2295,0.301,0.119
0.2825,0.3975,0.165
0.3365,0.5025,0.212
0.384,0.5955,0.274
0.427,0.692,0.356
0.473,0.7835,0.4285
0.5025,0.861,0.503
0.516,0.9355,0.5855
0.5425,1.018,0.6565
0.5645,1.0915,0.7195
0.573,1.1515,0.785
0.5835,1.2105,0.8555
0.597,1.279,0.936
0.6055,1.346,0.9955
0.592,1.385,1.033
0.572,1.3975,1.0585
0.553,1.3815,1.0505
0.5075,1.3295,1.0165
0.452,1.241,0.9535
0.414,1.148,0.876
0.3925,1.062,0.7655
0.3775,0.981,0.659
0.3415,0.901,0.6105
0.297,0.8235,0.58
0.26,0.763,0.555
0.228,0.7065,0.5375
0.199,0.639,0.5205
0.1485,0.55,0.501
0.1015,0.459,0.4655
0.056,0.359,0.4265
0.011,0.2615,0.398
-0.016,0.1785,0.3655
-0.0535,0.087,0.332
-0.0925,-0.0015,0.2885
-0.1275,-0.088,0.2345
-0.149,-0.14,0.201
-0.1575,-0.1665,0.1715
-0.162,-0.194,0.1335
-0.1535,-0.209,0.096
-0.1545,-0.2365,0.052
-0.17,-0.2675,0.0175
-0.176,-0.2885,-0.0075
-0.179,-0.304,-0.037
-0.1665,-0.304,-0.052
-0.155,-0.295,-0.0615
-0.154,-0.283,-0.0795
-0.1365,-0.2645,-0.0805
-0.128,-0.2505,-0.07
-0.126,-0.2405,-0.0655
-0.1195,-0.2275,-0.0555
-0.113,-0.2145,-0.0475
-0.1045,-0.2035,-0.0385
-0.1025,-0.193,-0.0295
-0.0965,-0.1825,-0.031
-0.0905,-0.1755,-0.0245
-0.094,-0.1675,-0.015
-0.0925,-0.154,-0.009
-0.083,-0.139,0.002
-0.082,-0.129,0.0175
-0.0845,-0.124,0.038
-0.078,-0.1165,0.0515
-0.069,-0.108,0.053
-0.0665,-0.1035,0.055
-0.0615,-0.1025,0.059
-0.058,-0.0985,0.0615
-0.058,-0.0935,0.058
-0.0585,-0.0935,0.053
-0.0625,-0.0925,0.0525
-0.0605,-0.09,0.055
-0.0575,-0.0905,0.056
-0.056,-0.0905,0.0525
-0.058,-0.0875,0.0535
-0.0585,-0.0895,0.055
-0.0545,-0.089,0.055
-0.055,-0.0855,0.0595
-0.0575,-0.086,0.063
-0.0595,-0.0855,0.062
-0.0575,-0.0845,0.0555
-0.058,-0.0845,0.0465
-0.058,-0.085,0.047
-0.0565,-0.0835,0.049
-0.052,-0.0805,0.0545
-0.047,-0.078,0.0565
-0.052,-0.0785,0.052
-0.0505,-0.0795,0.055
-0.0505,-0.0805,0.054
-0.0525,-0.0805,0.0535
-0.0515,-0.083,0.055
-0.0585,-0.084,0.053
-0.0615,-0.0815,0.05
-0.056,-0.08,0.053
-0.049,-0.077,0.055
-0.0455,-0.075,0.049
-0.0475,-0.077,0.0465
-0.0435,-0.076,0.0465
-0.0365,-0.0715,0.047
-0.045,-0.0745,0.046
-0.052,-0.077,0.044
-0.048,-0.0735,0.0495
-0.0495,-0.0735,0.052
-0.0485,-0.0735,0.054
-0.0425,-0.072,0.059
-0.042,-0.071,0.0575
-0.0405,-0.0695,0.0585
-0.039,-0.0685,0.061
-0.0405,-0.07,0.0605
-0.0425,-0.0685,0.061
-0.042,-0.0665,0.06
-0.04,-0.067,0.0615
-0.0375,-0.0635,0.06
-0.04,-0.064,0.0535
-0.041,-0.0635,0.052
-0.0375,-0.0605,0.0535
-0.0375,-0.0615,0.0585
-0.04,-0.0625,0.059
-0.0395,-0.0635,0.058
-0.037,-0.0595,0.0595
-0.035,-0.0575,0.0595
-0.034,-0.056,0.06
-0.043,-0.0575,0.061
-0.048,-0.059,0.0605
-0.039,-0.056,0.062
-0.0265,-0.049,0.0695
-0.021,-0.046,0.068
-0.029,-0.05,0.0625
-0.032,-0.048,0.0545
-0.027,-0.0465,0.0535
-0.0295,-0.048,0.0535
-0.0305,-0.048,0.0475
-0.03,-0.047,0.051
-0.0395,-0.0495,0.0555
-0.0315,-0.0485,0.0635
-0.025,-0.045,0.066
-0.0285,-0.0455,0.057
-0.021,-0.0435,0.055
-0.0175,-0.0415,0.0605
-0.021,-0.0415,0.063
-0.024,-0.043,0.064
-0.0215,-0.043,0.069
-0.0145,-0.037,0.076
-0.0105,-0.036,0.074
-0.0185,-0.038,0.074
-0.021,-0.035,0.0755
-0.023,-0.0335,0.0735
-0.028,-0.0345,0.0725
-0.0255,-0.035,0.072
-0.018,-0.0315,0.076
-0.0125,-0.027,0.0785
-0.017,-0.025,0.0755
-0.021,-0.0235,0.075
-0.0175,-0.0205,0.0705
-0.0155,-0.0225,0.065
-0.0115,-0.0215,0.069
-0.01,-0.018,0.068
-0.008,-0.017,0.07
-0.0065,-0.016,0.0705
-0.006,-0.015,0.0685
-0.001,-0.011,0.071
-0.004,-0.012,0.072
-0.0005,-0.0115,0.0735
0.004,-0.008,0.074
0.003,-0.0075,0.075
0.0035,-0.006,0.075
0.002,-0.004,0.0745
-0.0005,-0.0025,0.074
0.0,-0.0015,0.075
0.0025,-0.0015,0.074
0.0045,-0.0005,0.0775
0.0095,0.003,0.088
0.0075,0.0045,0.0865
0.0045,0.007,0.0865
0.0075,0.0075,0.0855
0.012,0.009,0.0855
0.0165,0.0115,0.0915
0.021,0.014,0.0895
0.019,0.014,0.0915
0.017,0.0155,0.0905
0.0195,0.019,0.089
0.015,0.02,0.088
0.0165,0.0215,0.0835
0.0185,0.02,0.086
0.022,0.021,0.0905
0.029,0.0255,0.087
0.0325,0.031,0.084
0.0325,0.0315,0.089
0.031,0.0325,0.092
0.0365,0.0375,0.0955
0.0345,0.0375,0.101
0.0365,0.0405,0.101
0.043,0.0445,0.0955
0.0435,0.046,0.0935
0.049,0.05,0.094
0.0545,0.0535,0.096
0.0565,0.057,0.0985
0.0565,0.06,0.1035
0.057,0.0625,0.1045
0.063,0.068,0.1015
0.059,0.0695,0.104
0.057,0.0695,0.1035
0.063,0.0735,0.1035
0.069,0.0815,0.105
0.0735,0.086,0.1055
0.0745,0.09,0.1025
0.0805,0.0965,0.1055
0.077,0.0955,0.111
0.0775,0.0995,0.1135
0.082,0.106,0.1145
0.08,0.108,0.1155
0.0865,0.113,0.1195
0.0935,0.117,0.1275
0.0955,0.1195,0.131
0.0975,0.1235,0.129
0.1055,0.128,0.1305
0.102,0.1305,0.1305
0.0995,0.134,0.132
0.107,0.1415,0.13
0.109,0.1455,0.135
0.1115,0.1495,0.1445
0.118,0.1555,0.14
0.117,0.158,0.1415
0.12,0.161,0.146
0.126,0.1665,0.146
0.1275,0.1725,0.148
0.1305,0.175,0.151
0.1315,0.1775,0.1545
0.137,0.1805,0.1555
0.138,0.183,0.15
0.1375,0.1855,0.146
0.1415,0.1875,0.1485
0.141,0.1915,0.153
0.143,0.1965,0.1495
0.1445,0.2005,0.1425
0.1405,0.2005,0.1435
0.142,0.2,0.1485
0.147,0.2045,0.148
0.15,0.21,0.151
0.1505,0.2115,0.1535
0.152,0.215,0.155
0.16,0.219,0.1655
0.1625,0.2195,0.175
0.156,0.22,0.173
0.1605,0.225,0.175
0.166,0.227,0.179
0.1625,0.2275,0.1755
0.1665,0.231,0.1795
0.1685,0.232,0.1755
0.1665,0.233,0.1695
0.1675,0.2355,0.1695
0.166,0.2375,0.1715
0.163,0.2395,0.1745
0.162,0.24,0.173
0.1685,0.242,0.1655
0.1755,0.2475,0.163
0.1745,0.2465,0.1705
0.176,0.2455,0.173
0.182,0.2485,0.1745
0.1795,0.25,0.172
0.1815,0.2525,0.174
0.1815,0.2525,0.179
0.167,0.2475,0.1775
0.169,0.245,0.1785
0.1785,0.2475,0.182
0.1765,0.2425,0.187
0.1715,0.2435,0.1875
0.168,0.2455,0.189
0.167,0.2415,0.183
0.1675,0.242,0.1785
0.1685,0.24,0.1785
0.1665,0.238,0.1745
0.1635,0.2365,0.1735
0.1605,0.2355,0.1695
0.155,0.2335,0.167
0.154,0.229,0.1665
0.1475,0.2225,0.1725
0.143,0.218,0.174
0.1525,0.215,0.17
0.148,0.21,0.172
0.142,0.205,0.1705
0.141,0.197,0.169
0.1375,0.1915,0.1615
0.13,0.1865,0.159
0.1225,0.1785,0.1615
0.1185,0.1745,0.158
0.116,0.1705,0.157
0.1165,0.165,0.1555
0.1095,0.1585,0.1505
0.1025,0.1515,0.1495
0.099,0.1445,0.1545
0.0945,0.137,0.158
0.087,0.13,0.1515
0.08,0.1225,0.1445
0.076,0.1135,0.137
0.0755,0.1085,0.1225
0.073,0.102,0.1125
0.068,0.092,0.1095
0.0625,0.084,0.1115
0.0595,0.078,0.111
0.0625,0.072,0.1075
0.0545,0.063,0.103
0.0495,0.057,0.105
0.042,0.0485,0.1055
0.0345,0.0405,0.098
0.0365,0.0375,0.0965
0.032,0.0335,0.094
0.0255,0.025,0.0945
0.019,0.0195,0.093
0.017,0.014,0.084
0.0155,0.0095,0.081
0.013,0.0065,0.078
0.0135,0.002,0.0745
0.006,-0.006,0.074
-0.0025,-0.0135,0.0695
-0.0035,-0.016,0.067
-0.0035,-0.021,0.062
-0.005,-0.0255,0.0565
-0.0095,-0.03,0.0555
-0.0095,-0.0345,0.056
-0.0125,-0.04,0.0535
-0.0195,-0.0445,0.049
-0.02,-0.0465,0.0475
-0.0215,-0.051,0.0485
-0.024,-0.054,0.0515
-0.0285,-0.0565,0.0465
-0.0335,-0.0585,0.041
-0.034,-0.0605,0.0405
-0.0255,-0.062,0.0405
-0.0225,-0.0635,0.037
-0.0315,-0.0665,0.0295
-0.0375,-0.071,0.027
-0.043,-0.0745,0.026
-0.0495,-0.077,0.031
-0.0495,-0.0785,0.0385
-0.048,-0.0805,0.0355
-0.0495,-0.083,0.0295
-0.046,-0.0835,0.0245
-0.041,-0.086,0.0285
-0.0365,-0.084,0.0285
-0.033,-0.084,0.022
-0.0355,-0.0885,0.0245
-0.043,-0.0885,0.0285
-0.039,-0.091,0.028
-0.034,-0.0935,0.025
-0.0405,-0.093,0.0275
-0.0445,-0.0915,0.025
-0.047,-0.093,0.024
-0.045,-0.0945,0.0265
-0.0445,-0.0955,0.022
-0.05,-0.098,0.018
-0.0505,-0.098,0.017
-0.0475,-0.0985,0.021
-0.05,-0.097,0.0185
-0.0505,-0.097,0.0185
-0.052,-0.099,0.0265
-0.0545,-0.1015,0.028
-0.052,-0.1035,0.0255
-0.053,-0.1025,0.0245
-0.055,-0.104,0.021
-0.0545,-0.105,0.0195
-0.0485,-0.1045,0.021
-0.047,-0.104,0.02
-0.055,-0.1055,0.0185
-0.054,-0.106,0.0195
-0.0505,-0.1035,0.0255
-0.048,-0.103,0.0255
-0.047,-0.1045,0.0255
-0.0515,-0.1065,0.0265
-0.0565,-0.107,0.02
-0.053,-0.1075,0.0205
-0.053,-0.1035,0.0215
-0.0545,-0.104,0.0205
-0.055,-0.106,0.021
-0.0505,-0.103,0.0215
-0.0505,-0.1045,0.022
-0.0545,-0.1045,0.0195
-0.051,-0.103,0.015
-0.05,-0.101,0.0145
-0.045,-0.099,0.011
-0.049,-0.1015,0.0105
-0.055,-0.102,0.0135
-0.0595,-0.104,0.01
-0.059,-0.105,0.0145
-0.054,-0.1055,0.018
-0.0545,-0.103,0.023
-0.051,-0.0995,0.023
-0.0515,-0.1,0.022
-0.05,-0.1,0.0225
-0.0535,-0.102,0.02
-0.0545,-0.102,0.025
-0.051,-0.0995,0.029
-0.0545,-0.0985,0.026
-0.0545,-0.0975,0.024
-0.0545,-0.098,0.023
-0.056,-0.097,0.022
-0.0585,-0.0965,0.0245
-0.057,-0.0965,0.022
-0.055,-0.0955,0.0165
-0.0555,-0.095,0.0205
-0.0545,-0.097,0.0275
-0.055,-0.097,0.029
-0.051,-0.097,0.032
-0.055,-0.099,0.0315
-0.058,-0.0985,0.0305
-0.0545,-0.0985,0.0345
-0.053,-0.0955,0.0335
-0.0485,-0.092,0.0315
-0.051,-0.093,0.0315
-0.05,-0.093,0.0335
-0.0455,-0.0925,0.03
-0.0495,-0.094,0.03
-0.056,-0.096,0.0345
-0.054,-0.0955,0.03
-0.051,-0.093,0.0255
-0.0485,-0.093,0.0235
-0.0445,-0.0925,0.025
-0.044,-0.091,0.027
-0.0485,-0.0915,0.0305
-0.05,-0.092,0.0325
-0.0465,-0.0905,0.03
-0.0415,-0.0865,0.0315
-0.0435,-0.0855,0.032
-0.051,-0.0885,0.029
-0.0495,-0.0905,0.0285
-0.053,-0.0915,0.0215
-0.056,-0.091,0.017
-0.05,-0.0885,0.0255
-0.049,-0.091,0.0305
-0.0515,-0.0915,0.0275
-0.05,-0.09,0.0245
-0.048,-0.09,0.024
-0.047,-0.0875,0.023
-0.0525,-0.0895,0.0255
-0.0565,-0.092,0.022
-0.0535,-0.0915,0.017
-0.051,-0.0935,0.0225
-0.0525,-0.093,0.024
-0.0475,-0.0915,0.03
-0.048,-0.0925,0.0335
-0.0575,-0.0925,0.0355
-0.0585,-0.093,0.0445
-0.056,-0.0945,0.043
-0.0515,-0.0925,0.04
-0.0495,-0.092,0.0405
-0.0445,-0.0915,0.0345
-0.0465,-0.0905,0.029
-0.056,-0.0925,0.0325
-0.056,-0.093,0.032
-0.0495,-0.0925,0.0275
-0.044,-0.091,0.0305
-0.0455,-0.0925,0.0305
-0.048,-0.09,0.0265
-0.05,-0.0895,0.024
-0.049,-0.092,0.0285
-0.0505,-0.0905,0.029
-0.054,-0.0935,0.025
-0.046,-0.0915,0.0305
-0.0425,-0.089,0.0335
-0.04,-0.0875,0.0375
-0.04,-0.082,0.0355
-0.0445,-0.0845,0.029
-0.0405,-0.0865,0.027
-0.044,-0.085,0.026
-0.0475,-0.084,0.028
-0.048,-0.0825,0.0285
-0.051,-0.086,0.034
-0.051,-0.088,0.0385
-0.051,-0.086,0.037
-0.052,-0.0855,0.038
-0.046,-0.084,0.0425
-0.047,-0.084,0.0405
-0.0535,-0.089,0.0365
-0.051,-0.089,0.0405
-0.044,-0.087,0.0395
-0.0435,-0.0875,0.037
-0.0425,-0.089,0.0375
-0.0375,-0.0875,0.0335
-0.0435,-0.089,0.03
-0.0495,-0.092,0.0315
-0.0585,-0.094,0.0275
-0.0605,-0.0945,0.0225
-0.0565,-0.094,0.022
-0.06,-0.0935,0.0205
-0.057,-0.0925,0.027
-0.053,-0.0925,0.0305
-0.053,-0.092,0.0275
-0.0575,-0.0935,0.0295
-0.055,-0.0945,0.0285
-0.0525,-0.0955,0.0265
-0.06,-0.0965,0.0245
-0.057,-0.097,0.0255
-0.0545,-0.0965,0.025
-0.0515,-0.095,0.0265
-0.051,-0.0985,0.031
-0.0545,-0.099,0.031
-0.051,-0.0985,0.03
-0.0545,-0.1,0.0265
-0.056,-0.0985,0.0245
-0.0525,-0.0975,0.025
-0.054,-0.0975,0.0265
-0.0535,-0.096,0.027
-0.0505,-0.0965,0.025
-0.0515,-0.1005,0.028
-0.055,-0.103,0.033
-0.058,-0.104,0.034
-0.057,-0.1025,0.033
-0.0545,-0.1005,0.0285
-0.057,-0.1015,0.0265
-0.0585,-0.1025,0.0225
-0.053,-0.101,0.0205
-0.054,-0.101,0.02
-0.059,-0.101,0.017
-0.0595,-0.101,0.019
-0.057,-0.1005,0.0165
-0.052,-0.1,0.016
-0.0475,-0.1,0.017
-0.051,-0.1025,0.018
-0.0535,-0.1035,0.0195
-0.051,-0.1005,0.0155
-0.05,-0.102,0.015
-0.048,-0.104,0.015
-0.049,-0.1055,0.0165
-0.0535,-0.1095,0.023
-0.0575,-0.111,0.0285
-0.0545,-0.1085,0.034
-0.0555,-0.108,0.0295
-0.0555,-0.108,0.025
-0.058,-0.107,0.024
-0.062,-0.108,0.0235
-0.058,-0.1085,0.021
-0.056,-0.107,0.021
-0.054,-0.1065,0.024
-0.0605,-0.109,0.0185
-0.062,-0.1105,0.016
-0.061,-0.1085,0.016
-0.062,-0.107,0.0125
-0.054,-0.106,0.012
-0.0515,-0.106,0.0125
-0.0555,-0.1065,0.0065
-0.063,-0.1085,0.0035
-0.062,-0.108,0.0035
-0.0585,-0.1065,0.005
-0.057,-0.1065,0.0145
-0.047,-0.1025,0.021
-0.054,-0.104,0.0235
-0.0565,-0.1045,0.024
-0.059,-0.105,0.017
-0.0685,-0.1075,0.014
-0.064,-0.106,0.011
-0.0595,-0.108,0.007
-0.0535,-0.1075,0.009
-0.061,-0.1085,0.0095
-0.0665,-0.108,0.0105
-0.0615,-0.107,0.0035
-0.058,-0.1075,-0.001
-0.0565,-0.108,0.003
-0.0585,-0.112,0.004
-0.0575,-0.1105,0.0065
-0.0625,-0.112,0.008
-0.0595,-0.114,0.0075
-0.0525,-0.1125,0.004
-0.049,-0.115,0.009
-0.049,-0.118,0.0125
-0.0545,-0.1165,0.0085
-0.0565,-0.116,0.012
-0.054,-0.113,0.013
-0.051,-0.112,0.012
-0.054,-0.1135,0.0125
-0.056,-0.112,0.0135
-0.0595,-0.115,0.008
-0.0615,-0.1135,0.01
-0.0575,-0.1125,0.015
-0.0645,-0.113,0.0095
-0.0675,-0.113,0.0075
-0.062,-0.113,0.01
-0.061,-0.112,0.008
-0.0555,-0.1115,0.0085
-0.057,-0.113,0.008
-0.065,-0.1135,-0.001
-0.064,-0.112,-0.0045
-0.068,-0.1125,-0.0075
-0.0655,-0.113,-0.0025
-0.0605,-0.1145,0.0045
-0.0595,-0.1145,0.0035
-0.057,-0.113,0.006
-0.0585,-0.1115,0.0085
-0.0575,-0.111,0.012
-0.059,-0.114,0.0155
-0.063,-0.115,0.0155
-0.065,-0.114,0.0105
-0.07,-0.116,0.005
-0.07,-0.117,0.0085
-0.064,-0.1145,0.012
-0.058,-0.112,0.0045
-0.054,-0.111,0.009
-0.059,-0.1135,0.0105
-0.0565,-0.114,0.004
-0.0495,-0.112,0.0115
-0.0575,-0.113,0.013
-0.0645,-0.115,0.0105
-0.0605,-0.1125,0.0055
-0.057,-0.113,0.0
-0.058,-0.1135,0.0015
-0.061,-0.114,0.007
-0.061,-0.114,0.0155
-0.0585,-0.1125,0.016
-0.0665,-0.115,0.014
-0.0665,-0.113,0.0165
-0.0655,-0.115,0.0125
-0.069,-0.1185,0.0085
-0.066,-0.115,0.0135
-0.068,-0.1155,0.0115
-0.0655,-0.116,0.0065
-0.0605,-0.112,-0.001
-0.056,-0.11,-0.006
-0.0565,-0.1145,-0.0055
-0.0605,-0.115,-0.0085
-0.065,-0.115,-0.0045
-0.068,-0.117,0.0
-0.0625,-0.1155,0.0025
-0.0615,-0.116,0.0045
-0.0615,-0.1155,0.006
-0.0645,-0.119,0.01
-0.0655,-0.1185,0.0095
-0.0645,-0.119,0.01
-0.068,-0.119,0.012
-0.0695,-0.1175,0.011
-0.067,-0.118,0.011
-0.0615,-0.1165,0.013
-0.0605,-0.1175,0.0135
-0.0595,-0.115,0.0145
-0.0575,-0.115,0.012
-0.0585,-0.1155,0.0095
-0.0675,-0.1165,0.0095
-0.071,-0.118,0.0065
-0.0605,-0.114,0.005
-0.058,-0.1135,0.0095
-0.058,-0.1145,0.013
-0.059,-0.115,0.0105
-0.0625,-0.1155,0.0115
-0.065,-0.116,0.0105
-0.064,-0.115,0.0075
-0.067,-0.1165,0.014
-0.075,-0.1165,0.0155
-0.0705,-0.113,0.008
-0.066,-0.113,0.005
-0.0715,-0.1155,0.002
-0.0725,-0.114,-0.0015
-0.063,-0.1095,0.001
-0.0655,-0.1115,0.003
-0.0615,-0.11,0.01
-0.0555,-0.108,0.015
-0.0655,-0.111,0.011
-0.0705,-0.112,0.012
-0.0755,-0.1155,0.012
-0.0755,-0.1155,0.0095
-0.075,-0.1155,0.0075
-0.072,-0.1155,0.0085
-0.0695,-0.1145,0.008
-0.0695,-0.115,0.008
-0.066,-0.1155,0.0075
-0.065,-0.114,0.0075
-0.063,-0.1135,0.0095
-0.0625,-0.1145,0.013
-0.066,-0.1135,0.014
-0.07,-0.1125,0.0085
-0.0675,-0.1135,0.0065
-0.0675,-0.1155,0.006
-0.0685,-0.114,0.007
-0.068,-0.1135,0.007
-0.066,-0.115,0.0075
-0.0655,-0.114,0.008
-0.071,-0.113,0.0075
-0.0715,-0.1135,0.0085
-0.0745,-0.1145,0.0075
-0.071,-0.114,0.008
-0.063,-0.113,0.0115
-0.065,-0.113,0.018
-0.064,-0.112,0.0205
-0.0665,-0.113,0.022
-0.071,-0.1155,0.0215
-0.068,-0.116,0.0185
-0.0675,-0.1165,0.024
-0.071,-0.117,0.025
-0.077,-0.1215,0.0165
-0.076,-0.1195,0.012
-0.072,-0.116,0.012
-0.0765,-0.1175,0.0095
-0.0735,-0.1175,0.008
-0.0675,-0.118,0.009
-0.07,-0.116,0.011
-0.071,-0.1165,0.0085
-0.069,-0.1185,0.003
-0.0665,-0.116,-0.0025
-0.0675,-0.1175,-0.0035
-0.066,-0.118,0.0
-0.0605,-0.114,0.0
-0.062,-0.1125,-0.0025
-0.061,-0.1125,-0.0045
-0.0585,-0.11,-0.005
-0.0615,-0.11,-0.0045
-0.062,-0.113,-0.0015
-0.0585,-0.1085,-0.001
-0.057,-0.1065,0.004
-0.055,-0.106,0.0095
-0.0505,-0.101,0.0015
-0.0535,-0.0995,-0.0005
-0.0535,-0.0995,0.002
-0.0465,-0.0935,0.0055
-0.0395,-0.088,0.014
-0.032,-0.0835,0.024
-0.0305,-0.079,0.0335
-0.0345,-0.0775,0.035
-0.0325,-0.0735,0.043
-0.027,-0.0715,0.0465
-0.0225,-0.0675,0.046
-0.021,-0.0645,0.0465
-0.0185,-0.0615,0.0435
-0.0075,-0.0555,0.0525
-0.0055,-0.0505,0.05
-0.013,-0.0495,0.045
0.0005,-0.044,0.0515
0.0085,-0.039,0.052
-0.002,-0.0405,0.051
-0.0035,-0.0405,0.046
-0.0075,-0.041,0.0405
-0.0085,-0.039,0.0395
-0.0045,-0.037,0.039
-0.0035,-0.0385,0.0405
-0.0045,-0.0425,0.041
-0.0095,-0.0465,0.0435
-0.014,-0.0495,0.0435
-0.014,-0.0475,0.0425
-0.009,-0.0455,0.0415
-0.011,-0.047,0.034
-0.0125,-0.046,0.027
-0.007,-0.0465,0.0225
0.0,-0.047,0.0165
0.0015,-0.045,0.017
-0.003,-0.044,0.0175
0.0015,-0.0405,0.017
0.0015,-0.043,0.017
-0.0025,-0.0475,0.013
0.0,-0.0485,0.0175
-0.0075,-0.051,0.021
-0.0125,-0.053,0.0155
-0.0105,-0.0565,0.019
-0.011,-0.062,0.0285
-0.017,-0.0715,0.032
-0.0345,-0.079,0.034
-0.039,-0.082,0.0365
-0.034,-0.0855,0.036
-0.029,-0.084,0.035
-0.0295,-0.0845,0.0325
-0.031,-0.0855,0.0335
-0.0305,-0.087,0.0275
-0.035,-0.093,0.0205
-0.033,-0.0935,0.0225
-0.031,-0.0925,0.027
-0.036,-0.095,0.0265
-0.048,-0.1,0.013
-0.0455,-0.098,0.0085
-0.035,-0.0935,0.007
-0.029,-0.0905,0.0095
-0.0195,-0.084,0.0145
-0.011,-0.077,0.012
-0.007,-0.0735,0.018
-0.011,-0.077,0.021
-0.0105,-0.0775,0.0205
-0.007,-0.0765,0.0225
-0.01,-0.077,0.024
-0.009,-0.0755,0.029
-0.0125,-0.0775,0.0265
-0.02,-0.0795,0.0175
-0.0165,-0.0785,0.0165
-0.015,-0.081,0.0185
-0.018,-0.0795,0.0145
-0.0135,-0.0775,0.0125
-0.01,-0.079,0.013
-0.0125,-0.079,0.01
-0.015,-0.0845,0.0015
-0.0145,-0.0845,-0.0025
-0.018,-0.0855,-0.005
-0.0245,-0.09,-0.0115
-0.0245,-0.093,-0.0115
-0.024,-0.097,-0.008
-0.0275,-0.0995,-0.0035
-0.036,-0.104,0.0015
-0.0435,-0.1115,0.0055
-0.053,-0.119,0.0065
-0.064,-0.125,0.0045
-0.069,-0.13,0.0005
-0.0725,-0.133,-0.0065
-0.073,-0.135,-0.0115
-0.0775,-0.1375,-0.016
-0.0795,-0.1375,-0.0175
-0.078,-0.139,-0.016
-0.0825,-0.1415,-0.0155
-0.083,-0.141,-0.0135
-0.082,-0.139,-0.0125
-0.0815,-0.1385,-0.0165
-0.0835,-0.139,-0.018
-0.09,-0.142,-0.0185
-0.0895,-0.143,-0.016
-0.089,-0.1425,-0.012
-0.0875,-0.1415,-0.0125
-0.083,-0.14,-0.0125
-0.0865,-0.14,-0.009
-0.0845,-0.14,-0.007
-0.0825,-0.139,-0.007
-0.086,-0.1395,-0.0045
-0.083,-0.138,-0.005
-0.082,-0.1365,-0.0075
-0.0825,-0.136,-0.005
-0.0835,-0.137,-0.006
-0.0825,-0.139,-0.006
-0.0785,-0.1385,-0.0055
-0.0785,-0.1385,-0.0035
-0.075,-0.1375,-0.002
-0.0785,-0.1385,-0.0015
-0.082,-0.139,-0.0015
-0.081,-0.1375,-0.0035
-0.082,-0.1365,-0.0025
-0.082,-0.137,-0.0015
-0.0875,-0.1415,-0.0025
-0.089,-0.138,-0.0015
-0.082,-0.1325,0.0055
-0.0805,-0.134,0.0075
-0.082,-0.1365,0.0045
-0.081,-0.1375,0.005
-0.0815,-0.138,0.007
-0.077,-0.1375,0.012
-0.078,-0.1355,0.01
-0.082,-0.1355,0.005
-0.0785,-0.136,0.008
-0.0785,-0.136,0.01
-0.078,-0.1355,0.0085
-0.0795,-0.135,0.008
-0.078,-0.134,0.0125
-0.0745,-0.132,0.015
-0.0765,-0.133,0.012
-0.078,-0.1335,0.009
-0.079,-0.1325,0.004
-0.076,-0.1335,0.0015
-0.0805,-0.136,0.001
-0.085,-0.136,0.001
-0.0825,-0.1355,0.006
-0.0855,-0.1365,0.01
-0.082,-0.1345,0.0075
-0.0755,-0.1325,0.006
-0.08,-0.1315,0.006
-0.081,-0.1305,0.0075
-0.0765,-0.1305,0.01
-0.08,-0.13,0.0065
-0.08,-0.1305,0.0075
-0.079,-0.132,0.0095
-0.081,-0.133,0.0095
-0.0855,-0.1365,0.0115
-0.0915,-0.1385,0.0165
-0.093,-0.1395,0.019
-0.0915,-0.1425,0.0135
-0.093,-0.149,0.01
-0.1,-0.154,0.013
-0.105,-0.1595,0.012
-0.1125,-0.172,0.014
-0.1195,-0.1835,0.018
-0.13,-0.1945,0.022
-0.143,-0.2055,0.0315
-0.1535,-0.2175,0.0365
-0.161,-0.229,0.0395
-0.169,-0.241,0.04
-0.1795,-0.254,0.035
-0.1855,-0.2665,0.026
-0.194,-0.2835,0.011
-0.198,-0.299,-0.0005
-0.1965,-0.305,-0.0085
-0.196,-0.307,-0.0135
-0.1975,-0.311,-0.015
-0.1975,-0.3075,-0.006
-0.1935,-0.2935,0.003
-0.177,-0.27,0.002
-0.1555,-0.239,0.007
-0.1285,-0.1985,0.0195
-0.0825,-0.148,0.036
-0.039,-0.09,0.0455
0.007,-0.025,0.056
0.0595,0.036,0.0685
0.1095,0.1075,0.0775
0.1595,0.18,0.0945
0.205,0.2465,0.117
0.2555,0.325,0.146
0.319,0.4255,0.194
0.3715,0.524,0.249
0.412,0.613,0.3115
0.448,0.704,0.388
0.485,0.791,0.467
0.5195,0.873,0.547
0.5415,0.9475,0.6195
0.5605,1.02,0.685
0.575,1.09,0.7555
0.5875,1.1485,0.8195
0.595,1.209,0.899
0.61,1.288,0.982
0.6195,1.3435,1.013
0.607,1.37,1.047
0.585,1.377,1.064
0.5545,1.35,1.041
0.5115,1.289,1.0005
0.464,1.203,0.942
0.435,1.114,0.8575
0.4175,1.0255,0.7485
0.388,0.945,0.671
0.357,0.8745,0.615
0.322,0.8075,0.5795
0.2855,0.7455,0.5595
0.254,0.68,0.528
0.213,0.6035,0.487
0.169,0.5225,0.455
0.1195,0.428,0.4205
0.0685,0.3275,0.394
0.021,0.2385,0.3715
-0.0095,0.1515,0.34
-0.031,0.0755,0.3155
-0.069,-0.0025,0.269
-0.109,-0.0895,0.2205
-0.1295,-0.1415,0.19
-0.1325,-0.165,0.16
-0.133,-0.1835,0.124
-0.1295,-0.2005,0.08
-0.13,-0.23,0.0445
-0.139,-0.2555,0.0205
-0.144,-0.2685,-0.0015
-0.1385,-0.276,-0.0255
-0.134,-0.273,-0.046
-0.1275,-0.2665,-0.055
-0.1165,-0.255,-0.059
-0.1135,-0.241,-0.063
-0.111,-0.2305,-0.0545
-0.1065,-0.2175,-0.0395
-0.101,-0.209,-0.0285
-0.097,-0.1975,-0.017
-0.093,-0.1865,-0.0105
-0.0985,-0.18,-0.0045
-0.0985,-0.1725,0.004
-0.0895,-0.1645,0.0125
-0.0905,-0.154,0.0145
-0.083,-0.1415,0.021
-0.074,-0.1305,0.0355
-0.0705,-0.12,0.05
-0.0675,-0.1135,0.056
-0.0675,-0.1095,0.055
-0.0695,-0.1085,0.062
-0.0665,-0.1045,0.067
-0.061,-0.098,0.0675
-0.06,-0.1015,0.0685
-0.0565,-0.1015,0.0715
-0.054,-0.099,0.072
-0.0525,-0.1015,0.07
-0.056,-0.1005,0.0655
-0.0585,-0.1005,0.068
-0.056,-0.099,0.0735
-0.0555,-0.099,0.0665
-0.057,-0.101,0.067
-0.054,-0.099,0.067
-0.0515,-0.098,0.0635
-0.0515,-0.0975,0.0665
-0.051,-0.096,0.0655
-0.054,-0.0955,0.068
-0.0545,-0.096,0.07
-0.052,-0.094,0.0665
-0.054,-0.093,0.0675
-0.062,-0.0935,0.07
-0.062,-0.0935,0.066
-0.056,-0.092,0.0605
-0.0535,-0.09,0.057
-0.0495,-0.0875,0.057
-0.0505,-0.088,0.0595
-0.0515,-0.0895,0.062
-0.05,-0.0875,0.0635
-0.048,-0.0875,0.068
-0.047,-0.086,0.0705
-0.049,-0.086,0.0685
-0.0495,-0.088,0.07
-0.048,-0.088,0.071
-0.047,-0.0865,0.0735
-0.0465,-0.0815,0.074
-0.0495,-0.0815,0.071
-0.05,-0.082,0.065
-0.044,-0.0805,0.065
-0.047,-0.0815,0.065
-0.05,-0.081,0.0635
-0.043,-0.079,0.071
-0.04,-0.077,0.075
-0.0455,-0.076,0.072
-0.05,-0.0785,0.0685
-0.0495,-0.0795,0.072
-0.0515,-0.0795,0.071
-0.0445,-0.077,0.0725
-0.04,-0.075,0.08
-0.0415,-0.0755,0.0795
-0.0405,-0.0745,0.074
-0.043,-0.075,0.071
-0.042,-0.0755,0.0685
-0.0455,-0.073,0.0705
-0.0425,-0.0705,0.073
-0.0435,-0.073,0.0725
-0.0475,-0.0745,0.0725
-0.0385,-0.0685,0.0755
-0.032,-0.0665,0.084
-0.033,-0.067,0.087
-0.0395,-0.067,0.085
-0.041,-0.0685,0.078
-0.037,-0.0645,0.0745
-0.0295,-0.0615,0.0745
-0.0335,-0.0635,0.067
-0.043,-0.0655,0.0675
-0.038,-0.0655,0.0675
-0.031,-0.062,0.067
-0.035,-0.062,0.0725
-0.04,-0.0615,0.074
-0.0435,-0.0615,0.072
-0.042,-0.0605,0.07
-0.036,-0.059,0.076
-0.0325,-0.058,0.079
-0.031,-0.0555,0.0785
-0.0335,-0.054,0.0815
-0.0335,-0.052,0.084
-0.032,-0.0515,0.0865
-0.0235,-0.052,0.085
-0.0195,-0.0515,0.0855
-0.0205,-0.047,0.09
-0.02,-0.045,0.0905
-0.019,-0.0455,0.0915
-0.0125,-0.044,0.0935
-0.0155,-0.042,0.0875
-0.018,-0.0405,0.0825
-0.0175,-0.0415,0.081
-0.017,-0.0405,0.079
-0.0155,-0.039,0.079
-0.017,-0.0385,0.076
-0.015,-0.0365,0.0825
-0.012,-0.034,0.091
-0.0075,-0.0325,0.088
-0.0105,-0.032,0.089
-0.012,-0.029,0.0935
-0.0105,-0.0275,0.096
-0.0155,-0.029,0.098
-0.014,-0.028,0.101
-0.0145,-0.0275,0.0975
-0.015,-0.027,0.0945
-0.0095,-0.0245,0.0975
-0.011,-0.0215,0.1015
-0.0135,-0.019,0.1015
-0.0135,-0.0175,0.094
-0.011,-0.0155,0.0895
-0.0035,-0.014,0.087
-0.002,-0.012,0.0835
0.004,-0.0095,0.0835
0.009,-0.007,0.087
0.0075,-0.0045,0.09
0.009,-0.0055,0.0925
0.007,-0.005,0.095
0.005,-0.0025,0.0985
0.0085,-0.0015,0.102
0.012,0.0015,0.1055
0.0135,0.003,0.1065
0.013,0.0055,0.1075
0.014,0.0085,0.11
0.019,0.0095,0.113
0.0265,0.013,0.1145
0.027,0.0155,0.109
0.0275,0.0165,0.11
0.0295,0.0225,0.111
0.03,0.0245,0.1085
0.0365,0.0295,0.112
0.04,0.033,0.1175
0.0375,0.0325,0.1205
0.037,0.036,0.123
0.035,0.035,0.124
0.035,0.0365,0.1275
0.041,0.0415,0.1325
0.042,0.043,0.1295
0.0435,0.046,0.1285
0.052,0.0505,0.133
0.0585,0.054,0.1385
0.0595,0.058,0.143
0.061,0.0605,0.14
0.0645,0.065,0.1395
0.0635,0.068,0.1415
0.0605,0.0685,0.138
0.062,0.0725,0.135
0.0615,0.077,0.1335
0.067,0.0825,0.1335
0.0685,0.0825,0.1325
0.0705,0.085,0.1305
0.0785,0.0925,0.136
0.075,0.094,0.1375
0.0795,0.099,0.137
0.088,0.103,0.143
0.0885,0.1065,0.1455
0.0975,0.114,0.155
0.101,0.116,0.166
0.095,0.117,0.1625
0.1005,0.121,0.156
0.107,0.1265,0.157
0.1075,0.1335,0.158
0.105,0.137,0.158
0.1055,0.1395,0.1635
0.113,0.1435,0.1685
0.1145,0.148,0.1715
0.1165,0.1525,0.172
0.1195,0.1575,0.1765
0.1225,0.1625,0.182
0.1225,0.1645,0.181
0.1235,0.169,0.1815
0.1295,0.1735,0.1855
0.134,0.1755,0.1875
0.1405,0.18,0.1875
0.143,0.184,0.1875
0.1455,0.186,0.1875
0.15,0.19,0.186
0.15,0.193,0.1845
0.153,0.1965,0.1875
0.1575,0.199,0.196
0.158,0.1995,0.205
0.1575,0.2035,0.21
0.157,0.208,0.2155
0.1605,0.2125,0.218
0.1705,0.216,0.2115
0.17,0.215,0.2115
0.164,0.215,0.2145
0.1685,0.217,0.207
0.169,0.221,0.1985
0.172,0.224,0.1955
0.171,0.2245,0.192
0.169,0.2255,0.199
0.178,0.2275,0.2085
0.1815,0.228,0.212
0.181,0.2295,0.2165
0.178,0.2325,0.216
0.1785,0.232,0.2165
0.185,0.235,0.216
0.1815,0.238,0.2145
0.175,0.235,0.2145
0.175,0.2385,0.22
0.1795,0.2405,0.221
0.182,0.243,0.2155
0.1865,0.2475,0.2165
0.1875,0.248,0.2145
0.18,0.245,0.214
0.178,0.2445,0.2165
0.1795,0.245,0.2175
0.178,0.243,0.211
0.178,0.243,0.2075
0.182,0.2435,0.209
0.1785,0.2415,0.207
0.174,0.2385,0.208
0.1735,0.238,0.2065
0.17,0.235,0.204
0.165,0.231,0.2055
0.1625,0.2305,0.206
0.163,0.2255,0.206
0.16,0.2225,0.2015
0.156,0.2205,0.2015
0.157,0.215,0.205
0.1555,0.2125,0.204
0.1505,0.2085,0.2045
0.1485,0.202,0.208
0.143,0.1955,0.2075
0.137,0.1895,0.2055
0.129,0.182,0.2085
0.126,0.177,0.2045
0.1305,0.1715,0.199
0.1235,0.164,0.195
0.117,0.156,0.185
0.114,0.1495,0.177
0.1105,0.144,0.173
0.109,0.1365,0.171
0.102,0.1285,0.169
0.0955,0.121,0.163
0.088,0.114,0.1555
0.075,0.104,0.147
0.0655,0.096,0.1425
0.0655,0.0915,0.14
0.0705,0.085,0.1355
0.067,0.0765,0.132
0.058,0.071,0.129
0.05,0.064,0.1255
0.049,0.0565,0.1245
0.0455,0.0505,0.1215
0.04,0.043,0.119
0.041,0.038,0.116
0.0325,0.0325,0.1075
0.029,0.0275,0.1065
0.03,0.0215,0.1025
0.0245,0.0135,0.0985
0.0185,0.008,0.0965
0.0115,0.0005,0.089
0.0065,-0.0055,0.0865
-0.0025,-0.012,0.0865
-0.009,-0.017,0.086
-0.01,-0.0195,0.0815
-0.0095,-0.028,0.0775
-0.0045,-0.0285,0.0805
-0.005,-0.028,0.083
-0.0095,-0.035,0.0805
-0.0095,-0.037,0.077
-0.0105,-0.041,0.0765
-0.0185,-0.0465,0.074
-0.0235,-0.051,0.068
-0.025,-0.0575,0.065
-0.0255,-0.059,0.065
-0.0215,-0.0605,0.06
-0.0265,-0.0645,0.052
-0.0325,-0.0685,0.0475
-0.037,-0.073,0.046
-0.0415,-0.0755,0.047
-0.04,-0.0775,0.0465
-0.037,-0.08,0.0515
-0.0385,-0.08,0.0545
-0.043,-0.084,0.051
-0.0415,-0.086,0.0465
-0.043,-0.0865,0.0455
-0.0445,-0.0895,0.0455
-0.045,-0.0905,0.0405
-0.0515,-0.093,0.034
-0.0505,-0.094,0.035
-0.0475,-0.093,0.0425
-0.0485,-0.0945,0.039
-0.0495,-0.097,0.0375
-0.0525,-0.0985,0.04
-0.058,-0.1015,0.0415
-0.0615,-0.1045,0.0445
-0.0565,-0.103,0.037
-0.0525,-0.1025,0.0295
-0.05,-0.103,0.028
-0.051,-0.1045,0.024
-0.0515,-0.105,0.022
-0.052,-0.1065,0.0225
-0.0585,-0.1085,0.029
-0.0595,-0.108,0.0375
-0.058,-0.1095,0.034
-0.0575,-0.1095,0.0285
-0.0595,-0.109,0.0275
-0.0615,-0.11,0.0305
-0.056,-0.107,0.0365
-0.0515,-0.1055,0.039
-0.0525,-0.1055,0.035
-0.055,-0.108,0.031
-0.056,-0.1095,0.0285
-0.052,-0.1065,0.0315
-0.0525,-0.106,0.035
-0.055,-0.106,0.0335
-0.0555,-0.105,0.0295
-0.06,-0.107,0.023
-0.065,-0.107,0.0215
-0.0615,-0.1075,0.0265
-0.059,-0.106,0.0275
-0.059,-0.105,0.0275
-0.0555,-0.1035,0.0275
-0.056,-0.103,0.023
-0.052,-0.1035,0.023
-0.0525,-0.102,0.028
-0.054,-0.103,0.0285
-0.056,-0.106,0.0335
-0.057,-0.1065,0.036
-0.0525,-0.1045,0.032
-0.0505,-0.1035,0.028
-0.0455,-0.102,0.0265
-0.046,-0.102,0.027
-0.051,-0.105,0.028
-0.053,-0.107,0.0325
-0.051,-0.106,0.036
-0.054,-0.104,0.0375
-0.058,-0.1065,0.0375
-0.06,-0.108,0.036
-0.067,-0.1095,0.0325
-0.066,-0.1085,0.034
-0.0645,-0.1065,0.038
-0.0625,-0.1055,0.0415
-0.058,-0.1035,0.043
-0.058,-0.1035,0.04
-0.057,-0.104,0.0375
-0.053,-0.103,0.0395
-0.0515,-0.101,0.041
-0.05,-0.099,0.0395
-0.05,-0.0975,0.038
-0.0565,-0.1025,0.0305
-0.054,-0.1035,0.029
-0.051,-0.101,0.035
-0.0535,-0.102,0.04
-0.055,-0.102,0.043
-0.0555,-0.1035,0.0425
-0.048,-0.0995,0.0415
-0.0445,-0.0975,0.039
-0.047,-0.0995,0.033
-0.054,-0.1005,0.03
-0.059,-0.101,0.03
-0.0565,-0.101,0.031
-0.057,-0.1,0.036
-0.055,-0.0985,0.038
-0.053,-0.099,0.0355
-0.051,-0.099,0.0365
-0.048,-0.0965,0.0385
-0.048,-0.0965,0.042
-0.051,-0.0975,0.044
-0.051,-0.095,0.0415
-0.053,-0.0975,0.042
-0.056,-0.1,0.0425
-0.0515,-0.0985,0.043
-0.0485,-0.0975,0.0425
-0.053,-0.098,0.0425
-0.058,-0.1015,0.0445
-0.057,-0.0995,0.042
-0.052,-0.095,0.039
-0.051,-0.0945,0.0375
-0.051,-0.096,0.0395
-0.0465,-0.0955,0.041
-0.043,-0.0935,0.0435
-0.048,-0.094,0.0445
-0.0525,-0.0975,0.0445
-0.054,-0.0985,0.044
-0.059,-0.098,0.0395
-0.055,-0.096,0.0345
-0.043,-0.0925,0.0355
-0.0425,-0.0925,0.0385
-0.0535,-0.0945,0.038
-0.058,-0.0935,0.0375
-0.0545,-0.092,0.037
-0.0515,-0.093,0.034
-0.0535,-0.0955,0.0305
-0.055,-0.094,0.0325
-0.0505,-0.0925,0.034
-0.051,-0.0935,0.036
-0.053,-0.094,0.0375
-0.0565,-0.0955,0.0365
-0.054,-0.0945,0.0385
-0.045,-0.093,0.0395
-0.047,-0.0935,0.0365
-0.0515,-0.0955,0.0355
-0.0525,-0.096,0.0335
-0.0535,-0.095,0.029
-0.055,-0.0955,0.031
-0.054,-0.095,0.033
-0.0535,-0.095,0.0365
-0.058,-0.096,0.0365
-0.056,-0.0955,0.0335
-0.0595,-0.0975,0.0375
-0.062,-0.0985,0.04
-0.059,-0.097,0.0465
-0.061,-0.096,0.0535
-0.058,-0.096,0.0555
-0.057,-0.096,0.0575
-0.058,-0.0945,0.055
-0.053,-0.093,0.048
-0.0475,-0.092,0.0465
-0.045,-0.094,0.047
-0.05,-0.0985,0.0465
-0.049,-0.0995,0.044
-0.042,-0.0955,0.041
-0.045,-0.095,0.0395
-0.0495,-0.097,0.0305
-0.043,-0.096,0.027
-0.0425,-0.0975,0.0295
-0.048,-0.098,0.0295
-0.0465,-0.0975,0.028
-0.0515,-0.099,0.0265
-0.0615,-0.103,0.0275
-0.0625,-0.1025,0.0265
-0.058,-0.101,0.0275
-0.0565,-0.102,0.033
-0.0585,-0.103,0.035
-0.0595,-0.102,0.0325
-0.0555,-0.1005,0.0345
-0.0525,-0.101,0.035
-0.0565,-0.105,0.032
-0.055,-0.105,0.033
-0.0545,-0.1015,0.03
-0.0545,-0.103,0.03
-0.051,-0.1025,0.033
-0.0515,-0.1015,0.031
-0.0515,-0.103,0.026
-0.0605,-0.1045,0.0245
-0.0635,-0.106,0.0265
-0.0605,-0.1065,0.0285
-0.062,-0.1085,0.0295
-0.0615,-0.107,0.0325
-0.062,-0.104,0.031
-0.058,-0.102,0.022
-0.0545,-0.1035,0.021
-0.0555,-0.1055,0.027
-0.057,-0.1045,0.0265
-0.0605,-0.1055,0.0215
-0.0595,-0.107,0.0235
-0.056,-0.1055,0.0285
-0.052,-0.105,0.0335
-0.052,-0.1075,0.035
-0.0545,-0.109,0.0285
-0.0565,-0.109,0.0255
-0.057,-0.11,0.0245
-0.055,-0.111,0.0245
-0.056,-0.1115,0.026
-0.0595,-0.113,0.026
-0.062,-0.1145,0.029
-0.063,-0.1155,0.033
-0.0675,-0.117,0.036
-0.064,-0.115,0.0325
-0.061,-0.1135,0.031
-0.067,-0.1165,0.0305
-0.065,-0.1165,0.024
-0.06,-0.1155,0.0205
-0.06,-0.118,0.0195
-0.0605,-0.119,0.02
-0.062,-0.118,0.0175
-0.0605,-0.116,0.014
-0.058,-0.1195,0.013
-0.0585,-0.119,0.0165
-0.061,-0.1155,0.02
-0.0635,-0.113,0.0165
-0.06,-0.1125,0.0145
-0.055,-0.1125,0.0145
-0.0545,-0.1105,0.013
-0.058,-0.1135,0.0115
-0.0555,-0.116,0.013
-0.055,-0.119,0.016
-0.059,-0.1175,0.018
-0.0615,-0.116,0.015
-0.0605,-0.117,0.015
-0.062,-0.1155,0.0155
-0.065,-0.1175,0.014
-0.0625,-0.1185,0.0155
-0.0595,-0.118,0.019
-0.0615,-0.1185,0.0195
-0.064,-0.1175,0.0125
-0.062,-0.1165,0.0095
-0.0685,-0.1185,0.012
-0.0745,-0.121,0.0155
-0.0735,-0.123,0.019
-0.075,-0.122,0.0175
-0.0735,-0.1235,0.0155
-0.068,-0.123,0.0155
-0.0615,-0.12,0.0125
-0.0575,-0.1205,0.013
-0.0565,-0.12,0.0135
-0.0575,-0.1185,0.013
-0.0585,-0.118,0.009
-0.0615,-0.1195,0.004
-0.0675,-0.121,0.008
-0.072,-0.1225,0.01
-0.071,-0.123,0.015
-0.0715,-0.1215,0.0165
-0.0705,-0.121,0.014
-0.0665,-0.1215,0.0115
-0.064,-0.1195,0.011
-0.067,-0.1185,0.0085
-0.069,-0.1185,0.006
-0.065,-0.119,0.0105
-0.0625,-0.119,0.009
-0.0635,-0.1185,0.0055
-0.0655,-0.119,0.0055
-0.065,-0.118,0.004
-0.0625,-0.1185,-0.0015
-0.064,-0.1195,0.0
-0.066,-0.121,0.003
-0.065,-0.1215,0.0045
-0.0635,-0.121,0.0065
-0.059,-0.119,0.004
-0.0615,-0.118,0.0035
-0.066,-0.1195,0.003
-0.0655,-0.121,0.005
-0.066,-0.12,0.0075
-0.065,-0.1185,0.0065
-0.066,-0.1205,0.0045
-0.0655,-0.1205,0.0045
-0.0645,-0.119,0.003
-0.0705,-0.1225,0.0035
-0.0695,-0.124,0.0045
-0.06,-0.12,0.004
-0.0595,-0.12,0.007
-0.0625,-0.1215,0.005
-0.061,-0.12,0.004
-0.062,-0.121,0.005
-0.0595,-0.122,0.006
-0.0605,-0.1225,0.008
-0.066,-0.123,0.0085
-0.0675,-0.123,0.0095
-0.0675,-0.1225,0.0105
-0.066,-0.121,0.0105
-0.065,-0.121,0.0105
-0.0655,-0.123,0.012
-0.0675,-0.1235,0.0095
-0.069,-0.123,0.008
-0.074,-0.125,0.006
-0.0725,-0.125,0.0035
-0.0645,-0.1215,0.0055
-0.0635,-0.119,0.0025
-0.063,-0.121,-0.0005
-0.0635,-0.1215,-0.003
-0.0615,-0.1185,-0.007
-0.0605,-0.1195,-0.005
-0.0645,-0.12,-0.002
-0.0625,-0.119,-0.0055
-0.064,-0.1215,-0.0035
-0.072,-0.122,-0.003
-0.0665,-0.1205,-0.002
-0.062,-0.1205,0.003
-0.062,-0.119,0.0045
-0.0655,-0.12,0.0085
-0.0705,-0.122,0.0095
-0.0675,-0.1225,0.005
-0.0705,-0.1225,0.0045
-0.0705,-0.1225,0.0105
-0.0675,-0.1225,0.0085
-0.069,-0.1215,0.005
-0.069,-0.123,0.0065
-0.069,-0.123,0.0075
-0.069,-0.1225,0.007
-0.0675,-0.122,0.005
-0.065,-0.1225,0.0065
-0.066,-0.123,0.006
-0.0665,-0.1205,0.0035
-0.0675,-0.121,0.0035
-0.065,-0.1215,0.007
-0.0615,-0.123,0.0145
-0.068,-0.125,0.014
-0.0685,-0.123,0.0115
-0.0685,-0.124,0.0125
-0.0685,-0.1245,0.009
-0.067,-0.124,0.0045
-0.065,-0.1235,0.0055
-0.0625,-0.1235,0.006
-0.062,-0.125,0.004
-0.0645,-0.125,0.0015
-0.0645,-0.122,0.0005
-0.062,-0.1195,0.0005
-0.0615,-0.1205,0.001
-0.0575,-0.122,0.002
-0.059,-0.1215,0.002
-0.0625,-0.1225,0.004
-0.0665,-0.126,0.002
-0.069,-0.122,0.002
-0.063,-0.12,0.0045
-0.0655,-0.123,0.0025
-0.072,-0.124,-0.002
-0.07,-0.1235,0.001
-0.0685,-0.124,0.007
-0.067,-0.1235,0.006
-0.067,-0.1215,0.0065
-0.0685,-0.123,0.006
-0.063,-0.1225,0.0005
-0.0615,-0.1225,-0.0005
-0.06,-0.121,0.004
-0.062,-0.12,0.0115
-0.0645,-0.1205,0.0145
-0.0675,-0.122,0.01
-0.074,-0.1235,0.0095
-0.077,-0.1255,0.0095
-0.0755,-0.125,0.0075
-0.0695,-0.124,0.007
-0.067,-0.1225,0.0075
-0.062,-0.12,0.011
-0.061,-0.12,0.0135
-0.062,-0.12,0.015
-0.0595,-0.121,0.017
-0.0615,-0.122,0.0175
-0.0615,-0.123,0.0195
-0.0615,-0.121,0.0215
-0.062,-0.12,0.0185
-0.061,-0.1205,0.014
-0.0615,-0.121,0.0145
-0.0645,-0.123,0.018
-0.069,-0.1225,0.013
-0.0665,-0.1225,0.0115
-0.062,-0.122,0.018
-0.062,-0.1195,0.0165
-0.059,-0.121,0.014
-0.056,-0.1235,0.0185
-0.058,-0.123,0.0175
-0.0625,-0.1225,0.016
-0.0625,-0.122,0.018
-0.058,-0.1215,0.0115
-0.0555,-0.1235,0.011
-0.056,-0.1235,0.0135
-0.057,-0.1225,0.0165
-0.0615,-0.1225,0.024
-0.059,-0.1215,0.0325
-0.058,-0.1195,0.038
-0.061,-0.12,0.032
-0.0655,-0.1225,0.0295
-0.0705,-0.1215,0.0315
-0.072,-0.122,0.0225
-0.067,-0.122,0.019
-0.0635,-0.121,0.0185
-0.064,-0.1215,0.013
-0.0595,-0.118,0.0065
-0.062,-0.119,-0.0015
-0.0605,-0.1195,-0.0005
-0.056,-0.118,0.0025
-0.0545,-0.1175,0.0
-0.053,-0.117,-0.0035
-0.0575,-0.1175,-0.0035
-0.0565,-0.115,-0.004
-0.0545,-0.1165,0.0005
-0.0525,-0.1165,0.0075
-0.05,-0.1135,0.0075
-0.0475,-0.1115,0.008
-0.0435,-0.1075,0.006
-0.042,-0.1055,0.007
-0.0395,-0.101,0.015
-0.037,-0.099,0.02
-0.036,-0.0975,0.0255
-0.035,-0.094,0.026
-0.03,-0.0895,0.03
-0.0205,-0.0805,0.0405
-0.017,-0.0785,0.0415
-0.019,-0.078,0.0405
-0.0205,-0.078,0.043
-0.0185,-0.075,0.0415
-0.0165,-0.0715,0.0415
-0.015,-0.0685,0.0405
-0.01,-0.063,0.033
-0.004,-0.0585,0.0315
0.0035,-0.0545,0.037
0.0045,-0.053,0.041
0.006,-0.0505,0.046
0.0055,-0.0495,0.0485
-0.0015,-0.0495,0.05
-0.003,-0.0495,0.052
-0.004,-0.0505,0.0465
-0.0065,-0.049,0.0445
-0.0065,-0.051,0.044
-0.0035,-0.051,0.041
-0.0035,-0.0515,0.038
-0.007,-0.054,0.039
-0.006,-0.053,0.0425
-0.005,-0.0535,0.0405
-0.0035,-0.0545,0.0365
0.0015,-0.055,0.029
0.0065,-0.053,0.0225
0.0045,-0.0535,0.0245
0.0015,-0.056,0.026
0.001,-0.055,0.02
0.002,-0.0545,0.0205
0.004,-0.054,0.022
0.003,-0.054,0.02
-0.0055,-0.0595,0.022
-0.0145,-0.0655,0.021
-0.0095,-0.0665,0.0195
-0.0085,-0.0665,0.0175
-0.017,-0.073,0.016
-0.0205,-0.0795,0.0175
-0.026,-0.0835,0.025
-0.033,-0.0875,0.0265
-0.0395,-0.0875,0.0245
-0.035,-0.0865,0.025
-0.0305,-0.0895,0.026
-0.0385,-0.095,0.0265
-0.0405,-0.097,0.02
-0.036,-0.0965,0.021
-0.03,-0.0975,0.021
-0.0285,-0.099,0.0215
-0.031,-0.1005,0.0245
-0.0335,-0.1015,0.022
-0.0315,-0.1015,0.024
-0.0255,-0.098,0.026
-0.0235,-0.094,0.027
-0.015,-0.0885,0.0205
-0.0075,-0.0845,0.0125
-0.009,-0.0815,0.012
-0.0055,-0.0775,0.014
-0.0055,-0.081,0.0185
-0.0055,-0.0805,0.0205
-0.006,-0.081,0.023
-0.0095,-0.0825,0.025
-0.008,-0.0805,0.0225
-0.01,-0.0835,0.014
-0.0075,-0.084,0.008
-0.0065,-0.0855,0.007
-0.007,-0.087,0.0055
-0.0075,-0.087,0.0055
-0.0105,-0.088,0.006
-0.01,-0.089,0.007
-0.0105,-0.0895,0.0035
-0.0105,-0.092,0.0
-0.0155,-0.0935,-0.0005
-0.017,-0.095,0.0
-0.015,-0.0975,0.0015
-0.0175,-0.1005,0.0045
-0.022,-0.106,0.003
-0.033,-0.1125,0.0005
-0.046,-0.118,-0.002
-0.0515,-0.1215,-0.0035
-0.053,-0.1275,-0.0015
-0.0635,-0.1345,-0.0075
-0.0715,-0.138,-0.013
-0.075,-0.1425,-0.0135
-0.0755,-0.1455,-0.0165
-0.076,-0.1465,-0.018
-0.079,-0.146,-0.0205
-0.0785,-0.1445,-0.0225
-0.0785,-0.144,-0.021
-0.0785,-0.1445,-0.0165
-0.0755,-0.1425,-0.014
-0.076,-0.142,-0.015
-0.0805,-0.1435,-0.0135
-0.082,-0.1425,-0.0115
-0.082,-0.1415,-0.0125
-0.0805,-0.14,-0.0095
-0.08,-0.14,-0.0085
-0.0805,-0.1405,-0.0095
-0.077,-0.14,-0.0085
-0.078,-0.1425,-0.007
-0.0815,-0.1415,-0.002
-0.0835,-0.1425,-0.002
-0.087,-0.144,-0.0065
-0.085,-0.1425,-0.01
-0.081,-0.144,-0.0115
-0.0775,-0.144,-0.011
-0.082,-0.144,-0.014
-0.084,-0.143,-0.0155
-0.082,-0.1445,-0.017
-0.0805,-0.144,-0.0155
-0.078,-0.144,-0.0155
-0.078,-0.145,-0.012
-0.0785,-0.1445,-0.0025
-0.0795,-0.1465,-0.001
-0.076,-0.1445,-0.0025
-0.0745,-0.1445,0.0005
-0.0765,-0.146,-0.001
-0.082,-0.146,-0.0085
-0.089,-0.147,-0.0095
-0.0865,-0.147,-0.006
-0.0825,-0.144,-0.0095
-0.085,-0.1425,-0.01
-0.087,-0.145,-0.009
-0.0905,-0.146,-0.013
-0.094,-0.148,-0.007
-0.0885,-0.147,-0.002
-0.0845,-0.145,-0.0005
-0.081,-0.1445,0.0005
-0.0775,-0.1415,-0.003
-0.0755,-0.144,0.005
-0.0745,-0.143,0.007
-0.0755,-0.141,0.0035
-0.077,-0.141,0.0095
-0.078,-0.1415,0.012
-0.076,-0.1405,0.009
-0.0755,-0.1385,0.0075
-0.0755,-0.1395,0.009
-0.0745,-0.14,0.008
-0.0775,-0.141,0.0055
-0.078,-0.138,0.0065
-0.0785,-0.138,0.013
-0.0775,-0.138,0.0135
-0.0755,-0.1355,0.0075
-0.081,-0.1375,0.0045
-0.084,-0.1405,0.005
-0.082,-0.143,0.0055
-0.084,-0.1435,0.0055
-0.089,-0.1445,0.0105
-0.088,-0.1465,0.0125
-0.0845,-0.145,0.014
-0.087,-0.147,0.0135
-0.0915,-0.1535,0.011
-0.0965,-0.16,0.013
-0.102,-0.1695,0.02
-0.116,-0.181,0.024
-0.1345,-0.1945,0.027
-0.1435,-0.208,0.035
-0.1535,-0.219,0.044
-0.168,-0.23,0.044
-0.1735,-0.235,0.046
-0.177,-0.245,0.043
-0.1825,-0.2595,0.0375
-0.1935,-0.2705,0.024
-0.2065,-0.29,0.005
-0.203,-0.3035,-0.001
-0.1945,-0.306,-0.014
-0.194,-0.3075,-0.019
-0.199,-0.311,-0.0245
-0.2015,-0.3045,-0.013
-0.189,-0.284,0.0005
-0.162,-0.256,-0.0015
-0.14,-0.2215,0.0155
-0.1145,-0.1785,0.0365
-0.065,-0.123,0.05
-0.009,-0.0585,0.0625
0.04,0.0045,0.0735
0.0865,0.068,0.082
0.1385,0.138,0.1005
0.192,0.209,0.116
0.245,0.2845,0.1365
0.3065,0.376,0.1825
0.3665,0.4795,0.2355
0.417,0.576,0.2885
0.4615,0.668,0.3535
0.502,0.7565,0.4275
0.532,0.84,0.506
0.5545,0.919,0.581
0.58,0.99,0.6485
0.5935,1.058,0.721
0.6075,1.123,0.792
0.6215,1.1815,0.86
0.6385,1.256,0.942
0.6615,1.3305,0.999
0.6555,1.367,1.0275
0.633,1.388,1.056
0.6115,1.386,1.06
0.5785,1.342,1.034
0.529,1.2655,0.983
0.48,1.1725,0.9055
0.45,1.0775,0.794
0.4215,0.987,0.704
0.3915,0.913,0.642
0.36,0.8435,0.5955
0.3235,0.7765,0.571
0.2895,0.713,0.539
0.254,0.64,0.4925
0.216,0.565,0.458
0.1595,0.479,0.4375
0.099,0.381,0.4065
0.056,0.2865,0.3885
0.017,0.1975,0.3615
-0.017,0.113,0.3215
-0.048,0.04,0.283
-0.089,-0.045,0.2405
-0.1285,-0.1245,0.2035
-0.136,-0.1605,0.1715
-0.1305,-0.18,0.139
-0.132,-0.198,0.094
-0.129,-0.22,0.061
-0.136,-0.2475,0.03
-0.1385,-0.2615,-0.001
-0.1325,-0.2685,-0.028
-0.1255,-0.2745,-0.0465
-0.1125,-0.2645,-0.046
-0.11,-0.2565,-0.0525
-0.109,-0.2505,-0.0555
-0.1005,-0.2385,-0.046
-0.099,-0.2295,-0.033
-0.101,-0.2185,-0.0275
-0.0995,-0.206,-0.0215
-0.1,-0.1965,-0.013
-0.0975,-0.188,-0.0085
-0.097,-0.183,-0.001
-0.099,-0.1755,0.0075
-0.094,-0.1635,0.0205
-0.0895,-0.152,0.0335
-0.083,-0.142,0.0435
-0.0725,-0.1315,0.058
-0.0665,-0.123,0.071
-0.0645,-0.118,0.072
-0.0655,-0.116,0.074
-0.062,-0.112,0.0745
-0.059,-0.108,0.0725
-0.061,-0.111,0.0775
-0.0575,-0.1125,0.0755
-0.0575,-0.114,0.076
-0.0585,-0.1125,0.076
-0.0605,-0.1135,0.073
-0.0585,-0.112,0.0765
-0.0585,-0.112,0.0715
-0.062,-0.1145,0.0695
-0.0605,-0.114,0.0725
-0.0625,-0.115,0.067
-0.061,-0.1135,0.063
-0.0585,-0.112,0.066
-0.0585,-0.1105,0.07
-0.0585,-0.111,0.069
-0.059,-0.112,0.068
-0.0585,-0.1125,0.07
-0.062,-0.1125,0.0745
-0.062,-0.112,0.0735
-0.061,-0.1105,0.0705
-0.0605,-0.108,0.0655
-0.0605,-0.109,0.059
-0.0585,-0.109,0.0615
-0.055,-0.1085,0.0615
-0.057,-0.1085,0.062
-0.0545,-0.107,0.0645
-0.0525,-0.1035,0.0635
-0.054,-0.1025,0.0635
-0.055,-0.103,0.0635
-0.054,-0.103,0.0655
-0.0555,-0.1025,0.0755
-0.0605,-0.102,0.0845
-0.0555,-0.102,0.0825
-0.05,-0.0985,0.0805
-0.047,-0.097,0.077
-0.046,-0.0975,0.0715
-0.051,-0.096,0.071
-0.051,-0.098,0.073
-0.049,-0.0975,0.073
-0.048,-0.0955,0.0695
-0.0485,-0.0955,0.065
-0.0465,-0.093,0.065
-0.0425,-0.091,0.0695
-0.0425,-0.0915,0.069
-0.045,-0.09,0.0655
-0.0435,-0.0885,0.065
-0.041,-0.087,0.0635
-0.044,-0.086,0.0625
-0.0445,-0.0845,0.065
-0.0435,-0.0855,0.07
-0.0425,-0.0865,0.072
-0.039,-0.083,0.0715
-0.0385,-0.0805,0.0715
-0.038,-0.0795,0.073
-0.0375,-0.0785,0.0735
-0.0395,-0.079,0.072
-0.041,-0.0785,0.072
-0.04,-0.0765,0.07
-0.0385,-0.0755,0.07
-0.038,-0.0755,0.0705
-0.0415,-0.0745,0.067
-0.0425,-0.0745,0.061
-0.043,-0.075,0.0615
-0.043,-0.0755,0.067
-0.036,-0.075,0.0705
-0.0345,-0.0735,0.0715
-0.038,-0.0725,0.07
-0.032,-0.069,0.0705
-0.028,-0.0665,0.0715
-0.0255,-0.066,0.0685
-0.023,-0.0695,0.0725
-0.029,-0.07,0.0715
-0.029,-0.064,0.0695
-0.0255,-0.0625,0.0765
-0.026,-0.0625,0.079
-0.027,-0.063,0.0775
-0.0285,-0.063,0.0725
-0.0295,-0.0605,0.0745
-0.0325,-0.059,0.0825
-0.0325,-0.0575,0.0825
-0.026,-0.0565,0.0825
-0.0245,-0.0565,0.078
-0.0255,-0.055,0.074
-0.0245,-0.0535,0.073
-0.0245,-0.0535,0.0735
-0.017,-0.0505,0.0875
-0.0095,-0.0485,0.097
-0.009,-0.0485,0.0945
-0.017,-0.049,0.0865
-0.0215,-0.0495,0.0815
-0.0235,-0.0495,0.083
-0.023,-0.049,0.085
-0.0165,-0.044,0.083
-0.011,-0.041,0.084
-0.007,-0.0385,0.0855
-0.007,-0.039,0.084
-0.0055,-0.0395,0.085
-0.0035,-0.0355,0.085
-0.0055,-0.035,0.086
-0.005,-0.0335,0.0895
-0.002,-0.031,0.094
-0.002,-0.029,0.091
-0.003,-0.0275,0.087
-0.0005,-0.027,0.086
0.0045,-0.0235,0.083
0.01,-0.02,0.09
0.0105,-0.018,0.0945
0.0125,-0.017,0.0915
0.015,-0.0165,0.091
0.0125,-0.0145,0.094
0.0115,-0.014,0.0955
0.0095,-0.013,0.097
0.007,-0.01,0.1005
0.0095,-0.01,0.1025
0.0135,-0.007,0.1055
0.013,-0.0035,0.1025
0.0175,-0.0015,0.1005
0.025,0.002,0.104
0.0205,0.0025,0.1015
0.0175,0.004,0.1015
0.025,0.008,0.1065
0.0275,0.0095,0.1065
0.028,0.0115,0.109
0.0325,0.0135,0.1115
0.0365,0.0175,0.116
0.038,0.018,0.1255
0.035,0.019,0.1315
0.036,0.023,0.1305
0.0415,0.0275,0.1295
0.042,0.031,0.129
0.0445,0.032,0.127
0.047,0.036,0.1315
0.0525,0.041,0.132
0.0605,0.0455,0.1325
0.062,0.0495,0.1295
0.063,0.053,0.124
0.0665,0.055,0.122
0.069,0.058,0.1245
0.0685,0.0615,0.126
0.0685,0.064,0.127
0.073,0.0695,0.13
0.0775,0.0745,0.129
0.08,0.0765,0.131
0.0815,0.079,0.133
0.083,0.0825,0.137
0.0885,0.086,0.142
0.092,0.0895,0.1455
0.0925,0.094,0.1455
0.096,0.098,0.1455
0.0975,0.1,0.15
0.0985,0.104,0.1515
0.101,0.1095,0.152
0.101,0.115,0.1505
0.1035,0.118,0.1515
0.1065,0.122,0.1555
0.112,0.1285,0.158
0.118,0.133,0.1595
0.118,0.1355,0.164
0.116,0.138,0.166
0.1175,0.1415,0.1675
0.1255,0.148,0.17
0.1325,0.1525,0.1725
0.138,0.1555,0.178
0.1415,0.1595,0.1745
0.1425,0.162,0.1695
0.1445,0.167,0.176
0.1475,0.171,0.1835
0.1525,0.1725,0.1905
0.147,0.175,0.187
0.143,0.1765,0.185
0.1465,0.178,0.192
0.145,0.1815,0.191
0.1485,0.186,0.194
0.155,0.189,0.1965
0.1555,0.1915,0.194
0.1535,0.195,0.191
0.157,0.1975,0.1885
0.1585,0.199,0.1855
0.158,0.201,0.1895
0.158,0.2045,0.1945
0.1615,0.2065,0.195
0.1705,0.2085,0.194
0.1755,0.213,0.192
0.177,0.2145,0.198
0.176,0.2145,0.199
0.1775,0.217,0.2015
0.1765,0.2185,0.207
0.175,0.221,0.208
0.174,0.222,0.21
0.172,0.221,0.2125
0.1765,0.223,0.218
0.1755,0.2255,0.217
0.178,0.228,0.217
0.182,0.2295,0.221
0.1805,0.2295,0.219
0.1805,0.2295,0.218
0.1785,0.2295,0.218
0.1765,0.229,0.2225
0.1755,0.229,0.221
0.1695,0.228,0.211
0.168,0.229,0.2125
0.1715,0.229,0.2105
0.171,0.2255,0.208
0.171,0.2245,0.2095
0.171,0.225,0.2105
0.1665,0.222,0.2135
0.158,0.2165,0.2085
0.1555,0.2135,0.2035
0.1595,0.213,0.204
0.16,0.2095,0.206
0.157,0.2045,0.2065
0.1525,0.203,0.206
0.1535,0.1995,0.206
0.153,0.195,0.2035
0.145,0.1905,0.199
0.1355,0.184,0.197
0.1335,0.179,0.194
0.135,0.1745,0.1925
0.13,0.1685,0.194
0.1235,0.161,0.192
0.1195,0.154,0.1865
0.116,0.1465,0.1825
0.1045,0.1395,0.179
0.0995,0.132,0.173
0.101,0.126,0.167
0.092,0.119,0.1625
0.085,0.1135,0.1605
0.086,0.108,0.159
0.0845,0.1005,0.1515
0.079,0.093,0.1465
0.075,0.0835,0.1515
0.07,0.075,0.1515
0.0645,0.0685,0.1465
0.061,0.0615,0.144
0.0565,0.0555,0.149
0.0465,0.0475,0.151
0.0385,0.0385,0.141
0.038,0.034,0.1285
0.037,0.028,0.119
0.0395,0.0245,0.111
0.038,0.0195,0.108
0.0315,0.013,0.1075
0.026,0.007,0.1
0.0205,-0.0005,0.096
0.017,-0.006,0.0935
0.014,-0.012,0.0865
0.01,-0.0165,0.0785
0.0075,-0.023,0.074
0.006,-0.0295,0.0735
0.001,-0.0355,0.072
0.0005,-0.04,0.0745
-0.003,-0.0435,0.075
-0.01,-0.049,0.0715
-0.013,-0.052,0.067
-0.014,-0.056,0.0675
-0.018,-0.0585,0.0665
-0.0265,-0.065,0.0595
-0.0295,-0.07,0.058
-0.033,-0.0725,0.0585
-0.0345,-0.077,0.0595
-0.03,-0.0775,0.056
-0.0245,-0.0785,0.048
-0.0265,-0.0825,0.044
-0.031,-0.0865,0.041
-0.0345,-0.0895,0.036
-0.04,-0.093,0.031
-0.0405,-0.0945,0.0295
-0.041,-0.096,0.029
-0.0435,-0.1005,0.024
-0.043,-0.104,0.025
-0.039,-0.1045,0.0375
-0.0425,-0.1055,0.0425
-0.0535,-0.11,0.041
-0.052,-0.111,0.0415
-0.047,-0.1095,0.04
-0.052,-0.1125,0.038
-0.055,-0.1155,0.0325
-0.0545,-0.1165,0.0265
-0.0535,-0.1145,0.027
-0.0525,-0.115,0.027
-0.052,-0.117,0.0285
-0.047,-0.1165,0.0295
-0.049,-0.1175,0.031
-0.051,-0.1165,0.0325
-0.0505,-0.1175,0.0255
-0.0505,-0.119,0.025
-0.0495,-0.1165,0.025
-0.0555,-0.1185,0.0205
-0.058,-0.122,0.0225
-0.059,-0.124,0.028
-0.0585,-0.1245,0.0335
-0.0575,-0.1255,0.029
-0.06,-0.125,0.024
-0.0605,-0.1235,0.0225
-0.064,-0.125,0.021
-0.0625,-0.1255,0.023
-0.0615,-0.124,0.0255
-0.059,-0.1225,0.0265
-0.055,-0.1225,0.0275
-0.0565,-0.123,0.0255
-0.0545,-0.121,0.026
-0.0535,-0.12,0.027
-0.0515,-0.121,0.023
-0.0535,-0.1215,0.019
-0.055,-0.1225,0.0165
-0.054,-0.123,0.017
-0.055,-0.122,0.019
-0.0565,-0.1235,0.0205
-0.0585,-0.1235,0.023
-0.0585,-0.124,0.026
-0.059,-0.1255,0.026
-0.062,-0.1265,0.023
-0.0585,-0.1265,0.0225
-0.0535,-0.123,0.0275
-0.059,-0.122,0.0305
-0.061,-0.122,0.028
-0.0615,-0.12,0.024
-0.061,-0.119,0.021
-0.059,-0.1205,0.024
-0.061,-0.1195,0.024
-0.0595,-0.1185,0.0225
-0.06,-0.1215,0.024
-0.06,-0.121,0.0285
-0.059,-0.1195,0.0335
-0.066,-0.12,0.028
-0.075,-0.122,0.026
-0.074,-0.1205,0.036
-0.066,-0.119,0.0425
-0.0615,-0.118,0.041
-0.056,-0.114,0.0375
-0.0545,-0.1135,0.045
-0.06,-0.119,0.0485
-0.0645,-0.1195,0.0405
-0.059,-0.115,0.036
-0.0555,-0.1155,0.0335
-0.056,-0.116,0.0325
-0.0535,-0.1155,0.032
-0.054,-0.115,0.031
-0.0545,-0.115,0.034
-0.0555,-0.1155,0.033
-0.0575,-0.1155,0.0325
-0.056,-0.1145,0.027
-0.0515,-0.1125,0.0215
-0.0515,-0.113,0.0265
-0.051,-0.114,0.0285
-0.0485,-0.1145,0.03
-0.0505,-0.1135,0.0305
-0.052,-0.1135,0.03
-0.0505,-0.1145,0.0275
-0.05,-0.113,0.0245
-0.0515,-0.1135,0.0295
-0.051,-0.1145,0.0335
-0.0515,-0.112,0.03
-0.0525,-0.1105,0.0315
-0.0545,-0.1105,0.0305
-0.0575,-0.111,0.028
-0.0575,-0.111,0.028
-0.056,-0.11,0.0295
-0.0545,-0.1085,0.035
-0.055,-0.108,0.0335
-0.054,-0.109,0.027
-0.053,-0.1085,0.0235
-0.053,-0.109,0.0245
-0.0555,-0.1115,0.0235
-0.056,-0.1105,0.022
-0.053,-0.1095,0.024
-0.054,-0.11,0.024
-0.054,-0.109,0.0225
-0.053,-0.1075,0.024
-0.052,-0.107,0.028
-0.0505,-0.107,0.0295
-0.054,-0.1065,0.033
-0.055,-0.108,0.0325
-0.0555,-0.1075,0.032
-0.056,-0.107,0.035
-0.057,-0.1085,0.0345
-0.0635,-0.1115,0.0325
-0.0595,-0.111,0.034
-0.054,-0.1095,0.037
-0.057,-0.1115,0.037
-0.0555,-0.11,0.0365
-0.0585,-0.1095,0.0335
-0.062,-0.1115,0.0295
-0.059,-0.1115,0.025
-0.0545,-0.11,0.031
-0.055,-0.1095,0.033
-0.064,-0.1115,0.034
-0.0585,-0.1105,0.042
-0.0555,-0.1115,0.0335
-0.063,-0.115,0.029
-0.0585,-0.113,0.0325
-0.058,-0.1125,0.0355
-0.0555,-0.112,0.0395
-0.0555,-0.1135,0.0425
-0.0605,-0.1155,0.04
-0.059,-0.118,0.0375
-0.0625,-0.1185,0.043
-0.0665,-0.1165,0.0435
-0.0625,-0.1165,0.0415
-0.061,-0.1155,0.0415
-0.062,-0.118,0.041
-0.0565,-0.115,0.0355
-0.0545,-0.115,0.032
-0.056,-0.118,0.0325
-0.0585,-0.116,0.028
-0.0575,-0.116,0.021
-0.054,-0.116,0.018
-0.0585,-0.1175,0.0195
-0.055,-0.116,0.0225
-0.0525,-0.1145,0.017
-0.06,-0.1175,0.016
-0.06,-0.118,0.027
-0.049,-0.1155,0.032
-0.047,-0.1165,0.031
-0.061,-0.122,0.0305
-0.0655,-0.121,0.0305
-0.0615,-0.118,0.0275
-0.0505,-0.115,0.0305
-0.0405,-0.1115,0.0365
-0.046,-0.1155,0.035
-0.0495,-0.116,0.0325
-0.061,-0.1185,0.0285
-0.067,-0.1235,0.0285
-0.057,-0.121,0.028
-0.0625,-0.122,0.0285
-0.0685,-0.1245,0.029
-0.071,-0.126,0.026
-0.0735,-0.1275,0.0265
-0.07,-0.1255,0.024
-0.068,-0.126,0.0305
-0.067,-0.1245,0.033
-0.062,-0.125,0.0315
-0.058,-0.1245,0.0325
-0.0645,-0.1235,0.023
-0.067,-0.126,0.0235
-0.0605,-0.124,0.0305
-0.0605,-0.123,0.03
-0.064,-0.123,0.0305
-0.063,-0.124,0.034
-0.0665,-0.127,0.0345
-0.0675,-0.1265,0.0295
-0.0635,-0.125,0.025
-0.0675,-0.127,0.022
-0.074,-0.13,0.0205
-0.0705,-0.1275,0.021
-0.0635,-0.1255,0.022
-0.066,-0.127,0.029
-0.0695,-0.128,0.0305
-0.0735,-0.13,0.026
-0.0735,-0.1305,0.0235
-0.071,-0.1325,0.0255
-0.072,-0.1325,0.0275
-0.072,-0.131,0.029
-0.075,-0.134,0.0225
-0.0725,-0.133,0.0155
-0.0675,-0.131,0.0215
-0.0685,-0.1325,0.0215
-0.069,-0.133,0.0195
-0.07,-0.1335,0.02
-0.064,-0.13,0.018
-0.068,-0.128,0.011
-0.077,-0.1295,0.0105
-0.0725,-0.1305,0.014
-0.071,-0.133,0.0165
-0.071,-0.133,0.0155
-0.0715,-0.1315,0.0115
-0.0695,-0.133,0.0165
-0.074,-0.135,0.021
-0.0785,-0.136,0.017
-0.0725,-0.135,0.0155
-0.0715,-0.137,0.0195
-0.07,-0.1385,0.017
-0.067,-0.1365,0.0145
-0.0685,-0.137,0.016
-0.0705,-0.1355,0.019
-0.068,-0.1335,0.018
-0.0705,-0.135,0.011
-0.074,-0.136,0.0125
-0.0765,-0.134,0.0135
-0.077,-0.134,0.0125
-0.072,-0.135,0.011
-0.0725,-0.135,0.009
-0.0725,-0.1365,0.0055
-0.076,-0.1375,0.003
-0.076,-0.1385,0.0045
-0.0715,-0.137,0.003
-0.0715,-0.136,0.0045
-0.0725,-0.1365,0.009
-0.07,-0.137,0.0075
-0.0715,-0.139,0.0085
-0.0695,-0.139,0.0145
-0.066,-0.138,0.0125
-0.0675,-0.1375,0.0105
-0.0635,-0.136,0.014
-0.0695,-0.139,0.017
-0.076,-0.141,0.013
-0.074,-0.1395,0.0135
-0.074,-0.139,0.0145
-0.0785,-0.141,0.008
-0.0775,-0.14,0.0025
-0.077,-0.139,0.0025
-0.073,-0.139,0.006
-0.0665,-0.1385,0.005
-0.0695,-0.1395,0.0055
-0.07,-0.1395,0.002
-0.0745,-0.141,0.005
-0.072,-0.1405,0.0095
-0.0635,-0.138,0.006
-0.0645,-0.139,0.006
-0.066,-0.139,0.0035
-0.0705,-0.1385,0.0025
-0.0795,-0.142,0.001
-0.084,-0.143,-0.0005
-0.0775,-0.137,-0.004
-0.0745,-0.137,-0.0015
-0.076,-0.1395,0.004
-0.074,-0.138,-0.0005
-0.08,-0.1395,0.0005
-0.0775,-0.1385,0.006
-0.07,-0.1365,0.012
-0.0645,-0.1355,0.016
-0.064,-0.1365,0.0105
-0.074,-0.1385,0.006
-0.0745,-0.1395,0.01
-0.072,-0.1395,0.0075
-0.071,-0.1375,0.002
-0.0725,-0.1375,0.004
-0.076,-0.139,0.0075
-0.0735,-0.1385,0.0095
-0.072,-0.136,0.0025
-0.075,-0.139,0.002
-0.0735,-0.1425,0.007
-0.0715,-0.1415,0.0045
-0.068,-0.1385,0.0
-0.068,-0.138,-0.0025
-0.0725,-0.141,-0.0015
-0.0715,-0.1405,-0.0005
-0.072,-0.1395,0.0025
-0.072,-0.1425,0.006
-0.0715,-0.1425,0.0065
-0.074,-0.1385,0.0035
-0.0755,-0.139,0.0015
-0.072,-0.14,0.001
-0.0665,-0.1395,0.0
-0.0695,-0.1405,-0.0065
-0.0715,-0.1435,-0.006
-0.067,-0.143,0.005
-0.063,-0.142,0.011
-0.064,-0.143,0.0095
-0.072,-0.1445,0.007
-0.0745,-0.145,0.0055
-0.0755,-0.148,0.003
-0.074,-0.1475,0.005
-0.0665,-0.144,0.0075
-0.066,-0.1455,0.005
-0.073,-0.147,0.004
-0.075,-0.1455,0.004
-0.0765,-0.147,0.002
-0.079,-0.148,0.0045
-0.0785,-0.1465,0.005
-0.0785,-0.143,-0.0005
-0.073,-0.1415,-0.0025
-0.0755,-0.142,-0.0005
-0.0765,-0.141,0.004
-0.0685,-0.14,0.004
-0.0675,-0.1395,0.003
-0.074,-0.1405,0.0015
-0.075,-0.1395,-0.005
-0.076,-0.141,-0.005
-0.074,-0.141,-0.0035
-0.0675,-0.139,-0.004
-0.0735,-0.141,-0.003
-0.071,-0.14,-0.0045
-0.0685,-0.139,-0.0015
-0.078,-0.139,-0.002
-0.079,-0.1395,0.0
-0.079,-0.1415,0.002
-0.077,-0.141,0.0005
-0.0745,-0.14,0.008
-0.075,-0.14,0.0055
-0.07,-0.139,-0.002
-0.0735,-0.14,0.0
-0.0765,-0.14,-0.0045
-0.07,-0.139,-0.007
